$$ -----------------------
$$ Labels defined by JCAMP
$$ -----------------------

## TITLE= Unknown
## JCAMP-DX= 4.24
## DATA TYPE= RD
## BLOCKS= 1
## ORIGIN= PANalytical B.V.
## OWNER= Copyright(C) 2004 by PANalytical B.V.
## DATE= 26/02/10
## TIME= 15:29:50
## SAMPLE DESCRIPTION= 
## SOURCE REFERENCE= Converted XRDML file
##= Configuration=Flat Sample Stage, Owner=pc, Creation date=11/22/2023 7:32:59 PM
Goniometer=Theta/Theta; Minimum step size 2Theta:0.0001; Minimum step size Omega:0.0001
Sample stage=Stage for flat samples/holders
Diffractometer system=EMPYREAN
Measurement program=C:\PANalytical\Data Collector\Programs\Fiber.xrdmp, Created identifier={E8C07BD7-8A8C-42E2-8622-4BC130302805}, Created by=pc, Id=WL:DESKTOP-BC0RBBD:pc, Creation date=1/6/2025 4:49:46 PM, Modified identifier={32F7A4C4-C999-46E4-852F-B36327219E96}, Modified by=pc, Id=WL:DESKTOP-BC0RBBD:pc, Modification date=1/12/2026 4:17:19 PM

$$ ------------------------------------
$$ Labels defined by PANalytical
$$ ------------------------------------

$$ Wavelengths are given in Angstrom.
##$WAVELENGTH ALPHA1= 1.5405980
##$WAVELENGTH ALPHA2= 1.5444260
##$INTENSITY RATIO ALPHA2/ALPHA1= 0.5000000
##$MONOCHROMATOR= NO
##$GENERATOR VOLTAGE= 45
##$TUBE CURRENT= 40
##$ANODE MATERIAL= Cu
##$TUBE FOCUS= LONG FINE
##$SCAN TYPE= CONTINUOUS
##$COUNT TIME= 7.140
##$DIVERGENCE SLIT= 0.71974

$$ -----------------------------------------------------
$$ Labels defined by PANalytical for PC-APD files
$$ -----------------------------------------------------

##$DIFFRACTOMETER= XPERT

$$ ------------------------------------------------------
$$ Labels defined by PANalytical for APD1700 files
$$ ------------------------------------------------------

##$TAKE OFF ANGLE= 7.600
##$DETECTOR TYPE= PIXcel1D-Medipix3 detector
##$SCATTER SLIT= 2.00

$$ -----------------------
$$ Labels defined by JCAMP
$$ -----------------------

## XUNITS= TWO-THETA
## YUNITS= COUNTS
## XFACTOR= 1.0
## YFACTOR= 1.0
## FIRSTX= 6.0056303
## LASTX= 89.9869183
## DELTAX= 0.0262606
## NPOINTS= 3199
## FIRSTY= 309.000
## MINX= 6.00563
## MAXX= 89.98692
## MINY= 8.000
## MAXY= 697.000
## XYDATA= X++<Y..Y>
    6.0056      309.000      248.000      282.000      259.000      291.000
    6.1369      302.000      225.000      280.000      264.000      280.000
    6.2682      261.000      263.000      266.000      254.000      258.000
    6.3995      284.000      254.000      239.000      266.000      266.000
    6.5308      234.000      262.000      265.000      255.000      258.000
    6.6621      248.000      240.000      248.000      270.000      219.000
    6.7934      250.000      256.000      224.000      231.000      255.000
    6.9248      231.000      242.000      255.000      239.000      223.000
    7.0561      248.000      252.000      240.000      238.000      222.000
    7.1874      224.000      218.000      213.000      212.000      241.000
    7.3187      233.000      210.000      234.000      220.000      217.000
    7.4500      224.000      249.000      234.000      225.000      214.000
    7.5813      218.000      230.000      207.000      250.000      214.000
    7.7126      225.000      220.000      223.000      220.000      213.000
    7.8439      231.000      234.000      218.000      211.000      221.000
    7.9752      205.000      216.000      213.000      213.000      240.000
    8.1065      201.000      209.000      212.000      194.000      215.000
    8.2378      203.000      211.000      195.000      190.000      187.000
    8.3691      200.000      209.000      174.000      194.000      212.000
    8.5004      201.000      219.000      166.000      209.000      201.000
    8.6317      198.000      185.000      209.000      205.000      198.000
    8.7630      219.000      195.000      211.000      173.000      188.000
    8.8943      209.000      186.000      185.000      168.000      186.000
    9.0256      183.000      172.000      173.000      173.000      187.000
    9.1569      184.000      191.000      180.000      166.000      174.000
    9.2882      183.000      168.000      181.000      169.000      177.000
    9.4195      164.000      202.000      203.000      200.000      171.000
    9.5508      189.000      180.000      181.000      190.000      185.000
    9.6821      176.000      160.000      177.000      174.000      148.000
    9.8134      158.000      193.000      196.000      168.000      150.000
    9.9447      148.000      169.000      151.000      174.000      145.000
   10.0760      163.000      165.000      182.000      151.000      197.000
   10.2073      153.000      188.000      181.000      177.000      153.000
   10.3386      176.000      159.000      162.000      154.000      159.000
   10.4699      162.000      168.000      138.000      151.000      176.000
   10.6012      180.000      154.000      165.000      169.000      169.000
   10.7325      168.000      158.000      162.000      179.000      153.000
   10.8638      163.000      140.000      149.000      148.000      149.000
   10.9951      146.000      146.000      158.000      144.000      146.000
   11.1264      142.000      154.000      129.000      142.000      144.000
   11.2577      145.000      138.000      150.000      138.000      137.000
   11.3890      156.000      136.000      155.000      146.000      148.000
   11.5203      155.000      138.000      160.000      149.000      169.000
   11.6517      160.000      125.000      163.000      155.000      165.000
   11.7830      177.000      191.000      175.000      162.000      127.000
   11.9143      137.000      123.000      140.000      136.000      146.000
   12.0456      156.000      157.000      160.000      137.000      139.000
   12.1769      144.000      172.000      136.000      144.000      142.000
   12.3082      151.000      150.000      122.000      172.000      150.000
   12.4395      131.000      153.000      126.000      123.000      141.000
   12.5708      150.000      125.000      129.000      125.000      153.000
   12.7021      155.000      123.000      121.000      138.000      108.000
   12.8334      151.000      149.000      120.000      129.000      130.000
   12.9647      131.000      128.000      134.000      132.000      118.000
   13.0960      136.000      123.000      130.000      123.000      120.000
   13.2273      108.000      117.000      106.000      120.000      118.000
   13.3586      122.000      106.000      117.000      131.000      139.000
   13.4899      143.000      128.000      111.000      111.000      139.000
   13.6212      104.000      122.000      115.000      134.000      130.000
   13.7525      103.000      126.000      109.000      115.000      107.000
   13.8838      128.000      121.000      136.000      119.000      126.000
   14.0151      136.000      117.000      128.000      106.000      115.000
   14.1464      104.000      128.000      121.000      127.000      121.000
   14.2777       97.000      111.000      115.000      112.000      111.000
   14.4090      101.000      123.000      118.000      111.000      106.000
   14.5403      106.000      112.000      116.000      116.000      117.000
   14.6716       94.000      116.000      134.000      119.000      122.000
   14.8029      123.000      106.000      116.000      120.000       90.000
   14.9342      116.000      105.000      112.000       97.000      109.000
   15.0655      127.000      115.000      119.000       95.000      103.000
   15.1968       93.000      110.000      109.000      113.000      108.000
   15.3281      101.000       85.000      119.000      106.000      100.000
   15.4594       93.000      103.000      100.000       85.000       91.000
   15.5907       99.000      105.000      102.000       99.000      109.000
   15.7220       93.000       88.000       95.000      104.000      101.000
   15.8533       81.000      114.000       78.000       84.000      112.000
   15.9846       90.000       99.000       95.000       90.000       94.000
   16.1159       94.000       96.000      100.000      104.000       89.000
   16.2473       97.000      113.000       76.000       97.000      110.000
   16.3786      108.000       82.000       90.000       91.000       97.000
   16.5099      100.000       92.000       83.000      105.000       99.000
   16.6412       95.000       87.000       95.000       85.000       85.000
   16.7725      112.000       95.000       93.000       83.000       84.000
   16.9038       96.000       97.000       88.000       70.000       92.000
   17.0351       84.000       89.000      102.000       93.000       76.000
   17.1664       76.000       85.000       89.000      100.000       80.000
   17.2977       89.000       93.000       78.000      102.000       83.000
   17.4290       85.000       90.000       96.000       87.000       88.000
   17.5603      107.000       82.000       82.000       88.000       72.000
   17.6916       84.000       90.000       85.000       86.000       65.000
   17.8229       90.000       83.000       93.000       66.000       91.000
   17.9542       76.000       98.000       92.000      109.000       69.000
   18.0855       71.000       75.000      112.000       79.000       86.000
   18.2168       97.000       80.000       86.000       86.000       84.000
   18.3481       86.000       72.000       87.000       91.000       60.000
   18.4794       81.000       81.000       81.000       70.000       78.000
   18.6107       77.000       67.000       91.000       88.000       87.000
   18.7420       95.000       92.000       75.000       89.000       80.000
   18.8733       68.000       75.000       81.000       81.000       65.000
   19.0046       82.000       62.000       78.000       84.000       89.000
   19.1359       78.000       67.000       71.000       71.000       66.000
   19.2672       83.000       84.000       68.000       59.000       66.000
   19.3985      100.000       66.000       78.000       64.000       71.000
   19.5298       65.000       70.000       88.000       64.000       69.000
   19.6611       64.000       76.000       69.000       74.000       84.000
   19.7924       71.000       61.000       77.000       72.000       64.000
   19.9237       78.000       75.000       80.000       69.000       57.000
   20.0550       55.000       78.000       90.000       67.000       76.000
   20.1863       69.000       84.000       69.000       78.000       60.000
   20.3176       82.000       76.000       71.000       63.000       80.000
   20.4489       78.000       69.000       83.000       75.000       69.000
   20.5802       76.000       77.000       63.000       80.000       76.000
   20.7115       66.000       76.000       73.000       89.000       94.000
   20.8428       88.000       95.000      101.000       88.000       85.000
   20.9742       75.000       85.000       66.000       78.000       72.000
   21.1055       59.000       71.000       67.000       60.000       60.000
   21.2368       77.000       76.000       55.000       58.000       57.000
   21.3681       72.000       69.000       79.000       60.000       71.000
   21.4994       63.000       75.000       58.000       51.000       61.000
   21.6307       69.000       68.000       71.000       58.000       59.000
   21.7620       61.000       60.000       63.000       58.000       67.000
   21.8933       77.000       65.000       60.000       69.000       64.000
   22.0246       45.000       62.000       68.000       62.000       67.000
   22.1559       58.000       55.000       54.000       69.000       70.000
   22.2872       69.000       51.000       63.000       61.000       59.000
   22.4185       66.000       56.000       57.000       70.000       66.000
   22.5498       59.000       69.000       55.000       57.000       58.000
   22.6811       59.000       56.000       58.000       66.000       63.000
   22.8124       55.000       57.000       64.000       74.000       86.000
   22.9437       75.000       60.000       63.000       74.000       74.000
   23.0750       89.000      100.000      102.000       84.000       94.000
   23.2063       95.000      103.000       87.000       79.000       96.000
   23.3376       71.000       56.000       54.000       85.000       52.000
   23.4689       79.000       68.000       83.000       54.000       64.000
   23.6002       70.000       72.000       52.000       64.000       56.000
   23.7315       54.000       56.000       47.000       62.000       60.000
   23.8628       61.000       67.000       53.000       50.000       63.000
   23.9941       57.000       55.000       56.000       53.000       43.000
   24.1254       53.000       48.000       55.000       57.000       58.000
   24.2567       59.000       55.000       55.000       59.000       53.000
   24.3880       71.000       54.000       61.000       52.000       65.000
   24.5193       58.000       61.000       68.000       56.000       68.000
   24.6506       61.000       48.000       51.000       51.000       52.000
   24.7819       56.000       49.000       59.000       60.000       51.000
   24.9132       43.000       50.000       65.000       70.000       55.000
   25.0445       56.000       49.000       71.000       51.000       58.000
   25.1758       63.000       46.000       53.000       49.000       55.000
   25.3071       66.000       51.000       57.000       61.000       65.000
   25.4384       70.000       63.000       61.000       58.000       68.000
   25.5698       49.000       59.000       60.000       57.000       66.000
   25.7011       58.000       52.000       42.000       55.000       49.000
   25.8324       50.000       65.000       61.000       52.000       60.000
   25.9637       69.000       54.000       70.000       62.000       57.000
   26.0950       45.000       68.000       75.000       62.000       58.000
   26.2263       62.000       71.000       49.000       63.000       70.000
   26.3576       69.000       64.000       72.000       74.000       67.000
   26.4889       63.000       76.000       54.000       75.000       75.000
   26.6202       75.000       84.000       78.000       86.000      101.000
   26.7515       92.000      128.000      104.000       99.000       75.000
   26.8828       72.000       56.000       41.000       47.000       59.000
   27.0141       50.000       44.000       42.000       55.000       58.000
   27.1454       51.000       47.000       51.000       41.000       47.000
   27.2767       61.000       51.000       54.000       39.000       57.000
   27.4080       51.000       54.000       62.000       55.000       66.000
   27.5393       53.000       59.000       63.000       50.000       62.000
   27.6706       71.000       57.000       39.000       39.000       55.000
   27.8019       49.000       58.000       52.000       60.000       56.000
   27.9332       82.000       56.000       49.000       49.000       59.000
   28.0645       60.000       69.000       63.000       60.000       71.000
   28.1958       54.000       67.000       67.000       54.000       55.000
   28.3271       68.000       50.000       64.000       57.000       50.000
   28.4584       41.000       45.000       64.000       52.000       61.000
   28.5897       77.000       47.000       42.000       62.000       37.000
   28.7210       55.000       68.000       58.000       70.000       51.000
   28.8523       58.000       65.000       52.000       47.000       54.000
   28.9836       64.000       43.000       58.000       52.000       66.000
   29.1149       62.000       70.000       77.000       82.000       83.000
   29.2462      104.000       96.000      120.000      113.000      129.000
   29.3775      164.000      191.000      217.000      331.000      369.000
   29.5088      486.000      613.000      697.000      692.000      648.000
   29.6401      554.000      390.000      298.000      196.000      144.000
   29.7714      105.000       84.000       88.000       89.000       88.000
   29.9027       63.000       90.000       58.000       70.000       73.000
   30.0340       71.000       65.000       67.000       71.000       78.000
   30.1654       88.000       83.000      111.000      118.000      111.000
   30.2967      101.000       91.000       75.000       54.000       60.000
   30.4280       56.000       64.000       47.000       43.000       42.000
   30.5593       36.000       44.000       54.000       56.000       47.000
   30.6906       50.000       46.000       48.000       37.000       44.000
   30.8219       50.000       47.000       44.000       46.000       46.000
   30.9532       63.000       49.000       56.000       65.000       62.000
   31.0845       61.000       87.000       68.000       75.000       55.000
   31.2158       49.000       73.000       81.000       74.000       63.000
   31.3471       57.000       55.000       48.000       60.000       63.000
   31.4784       57.000       65.000       72.000       72.000       44.000
   31.6097       78.000       65.000       61.000       74.000       58.000
   31.7410       67.000       64.000       67.000       64.000       75.000
   31.8723       67.000       49.000       73.000       57.000       66.000
   32.0036       81.000       67.000       72.000       87.000       65.000
   32.1349      103.000      111.000      105.000      169.000      168.000
   32.2662      171.000      227.000      297.000      417.000      409.000
   32.3975      447.000      388.000      315.000      261.000      191.000
   32.5288      170.000      149.000      160.000      185.000      210.000
   32.6601      246.000      291.000      304.000      316.000      314.000
   32.7914      355.000      283.000      217.000      219.000      162.000
   32.9227      124.000      102.000       90.000       83.000       86.000
   33.0540       80.000       79.000       96.000       89.000       88.000
   33.1853       72.000       96.000       81.000       81.000       99.000
   33.3166      101.000      132.000      128.000      146.000       91.000
   33.4479      124.000       97.000       85.000      114.000       79.000
   33.5792       88.000       90.000       76.000       73.000       86.000
   33.7105       90.000       68.000       92.000       84.000       72.000
   33.8418       80.000       85.000       96.000      109.000      104.000
   33.9731      119.000      108.000      111.000      101.000      119.000
   34.1044      112.000      103.000       93.000      109.000       86.000
   34.2357       76.000       79.000       85.000       78.000       81.000
   34.3670      118.000      115.000      150.000      192.000      250.000
   34.4983      291.000      340.000      277.000      285.000      245.000
   34.6296      161.000      139.000      116.000       60.000       39.000
   34.7609       58.000       51.000       52.000       47.000       64.000
   34.8923       55.000       46.000       55.000       44.000       54.000
   35.0236       40.000       54.000       42.000       48.000       36.000
   35.1549       49.000       45.000       40.000       50.000       34.000
   35.2862       42.000       55.000       50.000       49.000       37.000
   35.4175       44.000       56.000       62.000       49.000       39.000
   35.5488       37.000       42.000       38.000       33.000       51.000
   35.6801       40.000       38.000       39.000       39.000       39.000
   35.8114       49.000       50.000       42.000       45.000       44.000
   35.9427       51.000       39.000       36.000       56.000       63.000
   36.0740       85.000       66.000      106.000      101.000      100.000
   36.2053       90.000       84.000       60.000       51.000       32.000
   36.3366       43.000       51.000       33.000       35.000       28.000
   36.4679       31.000       48.000       32.000       41.000       41.000
   36.5992       46.000       49.000       47.000       51.000       33.000
   36.7305       56.000       51.000       56.000       65.000       67.000
   36.8618       77.000       54.000       65.000       61.000       49.000
   36.9931       51.000       57.000       50.000       52.000       38.000
   37.1244       41.000       33.000       47.000       44.000       46.000
   37.2557       36.000       43.000       56.000       25.000       33.000
   37.3870       46.000       38.000       45.000       31.000       36.000
   37.5183       49.000       54.000       42.000       41.000       41.000
   37.6496       33.000       35.000       39.000       37.000       35.000
   37.7809       34.000       44.000       37.000       40.000       44.000
   37.9122       29.000       34.000       34.000       37.000       38.000
   38.0435       38.000       50.000       53.000       43.000       42.000
   38.1748       37.000       37.000       41.000       36.000       43.000
   38.3061       34.000       48.000       44.000       24.000       28.000
   38.4374       36.000       33.000       28.000       35.000       30.000
   38.5687       38.000       40.000       38.000       33.000       33.000
   38.7000       43.000       39.000       48.000       54.000       68.000
   38.8313       75.000       74.000       73.000       90.000       67.000
   38.9626       89.000       78.000       79.000       81.000       69.000
   39.0939       66.000       52.000       44.000       52.000       43.000
   39.2252       55.000       43.000       50.000       48.000       61.000
   39.3565       70.000       57.000       64.000       62.000       61.000
   39.4879       84.000       88.000      127.000      122.000      131.000
   39.6192      105.000      108.000      113.000       88.000       76.000
   39.7505       53.000       61.000       46.000       56.000       49.000
   39.8818       48.000       45.000       52.000       34.000       39.000
   40.0131       30.000       42.000       34.000       30.000       35.000
   40.1444       39.000       31.000       38.000       28.000       32.000
   40.2757       34.000       35.000       39.000       20.000       42.000
   40.4070       29.000       30.000       33.000       41.000       25.000
   40.5383       35.000       39.000       33.000       32.000       54.000
   40.6696       45.000       30.000       50.000       31.000       42.000
   40.8009       40.000       41.000       42.000       51.000       43.000
   40.9322       50.000       52.000       61.000       49.000       53.000
   41.0635       57.000       59.000       58.000       65.000       57.000
   41.1948       61.000       70.000       81.000       82.000       97.000
   41.3261       90.000      126.000      133.000      150.000      172.000
   41.4574      207.000      212.000      171.000      165.000      147.000
   41.5887      113.000      112.000       68.000       76.000       76.000
   41.7200       73.000       60.000       72.000       83.000       66.000
   41.8513       62.000       58.000       60.000       42.000       50.000
   41.9826       45.000       51.000       35.000       34.000       43.000
   42.1139       51.000       33.000       46.000       37.000       37.000
   42.2452       40.000       33.000       24.000       33.000       36.000
   42.3765       30.000       36.000       59.000       30.000       35.000
   42.5078       58.000       35.000       36.000       39.000       29.000
   42.6391       37.000       28.000       31.000       28.000       24.000
   42.7704       38.000       32.000       33.000       30.000       44.000
   42.9017       25.000       47.000       52.000       53.000       43.000
   43.0330       60.000       54.000       73.000       52.000       47.000
   43.1643       42.000       55.000       59.000       84.000       74.000
   43.2956      112.000      114.000      102.000       99.000       80.000
   43.4269      103.000       74.000       72.000       62.000       49.000
   43.5582       59.000       45.000       35.000       41.000       32.000
   43.6895       40.000       41.000       40.000       50.000       43.000
   43.8208       44.000       42.000       38.000       40.000       39.000
   43.9521       43.000       42.000       42.000       39.000       39.000
   44.0835       49.000       58.000       41.000       35.000       48.000
   44.2148       39.000       43.000       45.000       46.000       44.000
   44.3461       41.000       44.000       52.000       46.000       43.000
   44.4774       39.000       28.000       41.000       46.000       36.000
   44.6087       41.000       34.000       30.000       45.000       45.000
   44.7400       46.000       30.000       36.000       44.000       35.000
   44.8713       32.000       42.000       30.000       29.000       38.000
   45.0026       31.000       40.000       31.000       28.000       26.000
   45.1339       25.000       33.000       36.000       33.000       29.000
   45.2652       33.000       41.000       25.000       32.000       30.000
   45.3965       27.000       41.000       27.000       37.000       24.000
   45.5278       28.000       26.000       29.000       27.000       46.000
   45.6591       32.000       35.000       35.000       29.000       35.000
   45.7904       54.000       43.000       47.000       59.000       55.000
   45.9217       48.000       58.000       63.000       63.000       48.000
   46.0530       67.000       60.000       59.000       37.000       39.000
   46.1843       36.000       42.000       29.000       52.000       44.000
   46.3156       36.000       35.000       22.000       33.000       32.000
   46.4469       42.000       34.000       24.000       18.000       38.000
   46.5782       34.000       31.000       30.000       43.000       35.000
   46.7095       40.000       36.000       39.000       39.000       38.000
   46.8408       30.000       31.000       44.000       57.000       49.000
   46.9721       54.000       50.000       88.000       64.000       66.000
   47.1034       80.000       80.000       89.000       82.000       78.000
   47.2347       83.000       90.000       74.000       77.000      101.000
   47.3660       66.000       96.000       88.000       63.000       68.000
   47.4973       75.000       85.000       77.000       90.000       97.000
   47.6286      104.000      131.000      113.000      121.000       87.000
   47.7599      100.000      103.000       87.000       81.000       67.000
   47.8912       64.000       53.000       65.000       43.000       39.000
   48.0225       57.000       48.000       51.000       45.000       49.000
   48.1538       54.000       35.000       44.000       31.000       43.000
   48.2851       40.000       29.000       36.000       59.000       33.000
   48.4164       46.000       45.000       30.000       36.000       38.000
   48.5477       48.000       62.000       76.000       99.000       96.000
   48.6790       95.000      113.000       84.000       95.000       86.000
   48.8104       74.000       76.000       63.000       41.000       33.000
   48.9417       38.000       40.000       40.000       37.000       37.000
   49.0730       37.000       46.000       29.000       33.000       42.000
   49.2043       30.000       24.000       41.000       37.000       34.000
   49.3356       39.000       34.000       32.000       29.000       34.000
   49.4669       33.000       34.000       37.000       32.000       40.000
   49.5982       38.000       34.000       37.000       35.000       49.000
   49.7295       43.000       47.000       45.000       37.000       39.000
   49.8608       44.000       56.000       56.000       57.000       38.000
   49.9921       64.000       50.000       49.000       46.000       56.000
   50.1234       38.000       52.000       58.000       39.000       43.000
   50.2547       50.000       47.000       37.000       41.000       46.000
   50.3860       35.000       39.000       54.000       49.000       33.000
   50.5173       29.000       29.000       42.000       32.000       38.000
   50.6486       31.000       36.000       39.000       38.000       25.000
   50.7799       30.000       31.000       29.000       39.000       32.000
   50.9112       32.000       39.000       43.000       43.000       39.000
   51.0425       40.000       43.000       37.000       43.000       34.000
   51.1738       32.000       34.000       34.000       28.000       35.000
   51.3051       26.000       29.000       39.000       23.000       32.000
   51.4364       37.000       24.000       29.000       31.000       32.000
   51.5677       35.000       40.000       36.000       37.000       40.000
   51.6990       40.000       33.000       43.000       62.000       80.000
   51.8303      132.000      141.000      139.000      153.000      155.000
   51.9616      148.000      138.000      128.000      130.000      119.000
   52.0929      102.000       77.000       71.000       47.000       48.000
   52.2242       40.000       47.000       47.000       24.000       37.000
   52.3555       24.000       35.000       27.000       36.000       29.000
   52.4868       23.000       25.000       24.000       35.000       25.000
   52.6181       21.000       29.000       18.000       30.000       32.000
   52.7494       33.000       20.000       33.000       24.000       26.000
   52.8807       23.000       30.000       28.000       30.000       25.000
   53.0120       18.000       26.000       42.000       23.000       28.000
   53.1433       31.000       25.000       24.000       29.000       30.000
   53.2746       36.000       22.000       22.000       31.000       31.000
   53.4060       33.000       28.000       33.000       23.000       31.000
   53.5373       35.000       28.000       37.000       38.000       34.000
   53.6686       23.000       24.000       33.000       34.000       21.000
   53.7999       16.000       32.000       34.000       40.000       32.000
   53.9312       37.000       26.000       33.000       26.000       33.000
   54.0625       26.000       42.000       34.000       25.000       29.000
   54.1938       33.000       34.000       36.000       42.000       34.000
   54.3251       31.000       23.000       32.000       34.000       39.000
   54.4564       33.000       35.000       38.000       32.000       30.000
   54.5877       42.000       22.000       22.000       36.000       27.000
   54.7190       20.000       25.000       30.000       22.000       29.000
   54.8503       33.000       25.000       29.000       31.000       33.000
   54.9816       31.000       24.000       41.000       31.000       24.000
   55.1129       31.000       25.000       38.000       26.000       18.000
   55.2442       40.000       38.000       20.000       38.000       28.000
   55.3755       28.000       29.000       20.000       30.000       28.000
   55.5068       30.000       28.000       31.000       32.000       27.000
   55.6381       30.000       33.000       27.000       29.000       19.000
   55.7694       18.000       32.000       27.000       23.000       20.000
   55.9007       24.000       29.000       35.000       33.000       26.000
   56.0320       31.000       24.000       42.000       35.000       39.000
   56.1633       40.000       35.000       31.000       35.000       28.000
   56.2946       47.000       35.000       26.000       37.000       37.000
   56.4259       33.000       44.000       40.000       55.000       64.000
   56.5572       71.000       78.000       86.000       86.000      100.000
   56.6885       92.000      103.000      106.000      104.000       98.000
   56.8198       81.000       59.000       61.000       80.000       64.000
   56.9511       62.000       37.000       34.000       37.000       40.000
   57.0824       35.000       35.000       38.000       46.000       35.000
   57.2137       38.000       49.000       31.000       28.000       40.000
   57.3450       30.000       33.000       42.000       38.000       53.000
   57.4763       45.000       52.000       60.000       67.000       65.000
   57.6076       64.000       43.000       45.000       48.000       48.000
   57.7389       45.000       39.000       47.000       35.000       33.000
   57.8702       40.000       36.000       31.000       20.000       46.000
   58.0015       33.000       34.000       33.000       38.000       20.000
   58.1329       27.000       35.000       26.000       47.000       33.000
   58.2642       42.000       39.000       23.000       42.000       33.000
   58.3955       30.000       35.000       31.000       32.000       27.000
   58.5268       30.000       34.000       28.000       41.000       35.000
   58.6581       39.000       46.000       35.000       32.000       36.000
   58.7894       42.000       32.000       40.000       33.000       33.000
   58.9207       30.000       38.000       30.000       38.000       47.000
   59.0520       31.000       34.000       39.000       32.000       34.000
   59.1833       32.000       29.000       31.000       29.000       34.000
   59.3146       26.000       26.000       31.000       34.000       27.000
   59.4459       37.000       41.000       35.000       34.000       40.000
   59.5772       33.000       35.000       39.000       34.000       26.000
   59.7085       46.000       38.000       24.000       30.000       32.000
   59.8398       34.000       29.000       28.000       31.000       35.000
   59.9711       49.000       42.000       58.000       51.000       56.000
   60.1024       74.000       68.000       74.000       66.000       61.000
   60.2337       58.000       59.000       45.000       47.000       74.000
   60.3650       36.000       50.000       56.000       41.000       47.000
   60.4963       45.000       40.000       45.000       32.000       31.000
   60.6276       31.000       49.000       36.000       30.000       45.000
   60.7589       53.000       52.000       75.000       59.000       63.000
   60.8902       52.000       51.000       48.000       55.000       64.000
   61.0215       43.000       48.000       46.000       35.000       36.000
   61.1528       54.000       34.000       42.000       47.000       49.000
   61.2841       43.000       36.000       37.000       32.000       42.000
   61.4154       26.000       29.000       45.000       40.000       37.000
   61.5467       35.000       44.000       28.000       25.000       41.000
   61.6780       38.000       45.000       33.000       34.000       43.000
   61.8093       30.000       19.000       37.000       29.000       28.000
   61.9406       34.000       36.000       26.000       26.000       37.000
   62.0719       28.000       27.000       31.000       40.000       24.000
   62.2032       50.000       32.000       65.000       57.000       66.000
   62.3345       56.000       83.000       71.000      105.000      113.000
   62.4658      104.000      113.000      112.000       89.000      120.000
   62.5971       99.000       99.000       73.000       89.000       63.000
   62.7285       63.000       55.000       74.000       61.000       48.000
   62.8598       49.000       49.000       46.000       42.000       42.000
   62.9911       43.000       38.000       37.000       38.000       31.000
   63.1224       34.000       22.000       31.000       41.000       34.000
   63.2537       35.000       37.000       37.000       33.000       39.000
   63.3850       33.000       34.000       30.000       24.000       37.000
   63.5163       42.000       30.000       37.000       30.000       35.000
   63.6476       59.000       50.000       40.000       56.000       24.000
   63.7789       39.000       36.000       32.000       44.000       43.000
   63.9102       48.000       41.000       41.000       40.000       37.000
   64.0415       33.000       43.000       47.000       35.000       31.000
   64.1728       26.000       29.000       28.000       24.000       29.000
   64.3041       25.000       23.000       43.000       30.000       23.000
   64.4354       30.000       39.000       36.000       22.000       24.000
   64.5667       31.000       26.000       29.000       32.000       23.000
   64.6980       36.000       29.000       50.000       37.000       51.000
   64.8293       46.000       38.000       42.000       53.000       46.000
   64.9606       39.000       44.000       39.000       37.000       36.000
   65.0919       29.000       32.000       25.000       28.000       39.000
   65.2232       28.000       25.000       28.000       28.000       28.000
   65.3545       32.000       30.000       31.000       31.000       33.000
   65.4858       30.000       33.000       24.000       25.000       27.000
   65.6171       26.000       32.000       20.000       26.000       45.000
   65.7484       44.000       37.000       34.000       36.000       35.000
   65.8797       38.000       23.000       32.000       31.000       28.000
   66.0110       29.000       29.000       21.000       17.000       36.000
   66.1423       24.000       26.000       19.000       26.000       22.000
   66.2736       21.000       21.000       20.000       29.000       35.000
   66.4049       28.000       20.000       29.000       26.000       37.000
   66.5362       24.000       30.000       25.000       22.000       23.000
   66.6675       29.000       26.000       24.000       29.000       27.000
   66.7988       26.000       16.000       20.000       31.000       22.000
   66.9301       16.000       28.000       22.000       20.000       22.000
   67.0614       29.000       37.000       20.000       37.000       23.000
   67.1927       29.000       29.000       35.000       35.000       35.000
   67.3241       28.000       27.000       27.000       27.000       30.000
   67.4554       45.000       41.000       30.000       41.000       40.000
   67.5867       34.000       38.000       30.000       30.000       32.000
   67.7180       30.000       35.000       39.000       26.000       35.000
   67.8493       34.000       30.000       31.000       29.000       27.000
   67.9806       36.000       20.000       28.000       22.000       30.000
   68.1119       27.000       21.000       18.000       27.000       29.000
   68.2432       30.000       30.000       27.000       30.000       27.000
   68.3745       32.000       32.000       29.000       31.000       38.000
   68.5058       20.000       33.000       26.000       19.000       24.000
   68.6371       27.000       31.000       29.000       26.000       16.000
   68.7684       24.000       30.000       34.000       20.000       27.000
   68.8997       25.000       28.000       22.000       34.000       21.000
   69.0310       19.000       34.000       35.000       22.000       37.000
   69.1623       18.000       33.000       34.000       27.000       23.000
   69.2936       26.000       29.000       23.000       35.000       26.000
   69.4249       30.000       33.000       28.000       33.000       26.000
   69.5562       28.000       30.000       33.000       27.000       26.000
   69.6875       28.000       29.000       25.000       26.000       28.000
   69.8188       30.000       37.000       26.000       25.000       29.000
   69.9501       36.000       28.000       26.000       23.000       23.000
   70.0814       24.000       24.000       31.000       30.000       27.000
   70.2127       22.000       23.000       23.000       22.000       36.000
   70.3440       22.000       30.000       32.000       37.000       33.000
   70.4753       40.000       25.000       28.000       23.000       22.000
   70.6066       23.000       24.000       22.000       24.000       26.000
   70.7379       22.000       37.000       14.000       28.000       29.000
   70.8692       23.000       21.000       31.000       20.000       20.000
   71.0005       35.000       16.000       31.000       34.000       18.000
   71.1318       25.000       21.000       27.000       28.000       25.000
   71.2631       29.000       27.000       31.000       26.000       23.000
   71.3944       27.000       27.000       33.000       37.000       33.000
   71.5257       38.000       29.000       30.000       21.000       28.000
   71.6570       22.000       29.000       23.000       31.000       24.000
   71.7883       27.000       23.000       35.000       22.000       23.000
   71.9196       18.000       23.000       22.000       18.000       25.000
   72.0510       18.000       33.000       18.000       13.000       20.000
   72.1823       22.000       20.000       26.000       13.000       14.000
   72.3136       21.000       23.000       14.000       19.000       26.000
   72.4449       21.000       28.000       26.000       23.000       29.000
   72.5762       26.000       33.000       35.000       20.000       30.000
   72.7075       21.000       24.000       17.000       26.000       31.000
   72.8388       26.000       24.000       26.000       17.000       31.000
   72.9701       30.000       17.000       30.000       32.000       40.000
   73.1014       33.000       21.000       20.000       22.000       27.000
   73.2327       21.000       25.000       26.000       15.000       30.000
   73.3640       29.000       22.000       29.000       25.000       23.000
   73.4953       22.000       28.000       18.000       23.000       30.000
   73.6266       23.000       23.000       20.000       18.000       19.000
   73.7579       23.000       24.000       21.000       23.000       17.000
   73.8892       26.000       29.000       27.000       29.000       23.000
   74.0205       32.000       30.000       19.000       15.000       17.000
   74.1518       23.000       20.000       18.000       24.000       17.000
   74.2831       29.000       23.000       29.000       18.000       24.000
   74.4144       27.000       15.000       27.000       21.000       22.000
   74.5457       24.000       20.000       21.000       13.000       22.000
   74.6770       24.000       24.000       19.000       33.000       19.000
   74.8083       21.000       30.000       22.000       19.000       24.000
   74.9396       20.000       23.000       28.000       22.000       32.000
   75.0709       28.000       23.000       24.000       25.000       18.000
   75.2022       16.000       31.000       33.000       22.000       19.000
   75.3335       25.000       26.000       18.000       21.000       23.000
   75.4648       15.000       28.000       23.000       28.000       26.000
   75.5961       27.000       17.000       28.000       20.000       21.000
   75.7274       32.000       22.000       28.000       25.000       20.000
   75.8587       35.000       20.000       24.000       22.000       21.000
   75.9900       23.000       28.000       14.000       19.000       19.000
   76.1213       25.000       24.000       25.000       14.000       16.000
   76.2526       14.000       24.000       22.000       30.000       23.000
   76.3839       18.000       18.000       28.000       25.000       24.000
   76.5152       14.000       33.000       27.000       24.000       20.000
   76.6466       23.000       21.000       27.000       28.000       27.000
   76.7779       23.000       22.000       20.000       31.000       26.000
   76.9092       28.000       29.000       28.000       27.000       18.000
   77.0405       10.000       23.000       20.000       25.000       14.000
   77.1718       24.000       24.000       21.000       26.000       21.000
   77.3031       29.000       18.000       19.000       20.000       25.000
   77.4344       23.000       39.000       30.000       27.000       25.000
   77.5657       25.000       28.000       20.000       23.000       26.000
   77.6970       17.000       28.000       16.000       13.000       27.000
   77.8283       25.000       19.000       24.000       26.000       19.000
   77.9596       18.000       29.000       19.000       17.000       27.000
   78.0909       22.000       19.000       17.000       18.000       18.000
   78.2222       22.000       19.000       15.000       28.000       24.000
   78.3535       23.000       20.000       20.000       21.000       21.000
   78.4848       17.000       20.000       29.000       17.000       25.000
   78.6161       23.000       24.000       25.000       24.000       19.000
   78.7474       23.000       23.000       22.000       17.000       25.000
   78.8787       16.000       23.000       19.000       22.000       17.000
   79.0100       33.000       21.000       26.000       26.000       28.000
   79.1413       26.000       20.000       17.000       22.000       14.000
   79.2726       17.000       35.000       26.000       28.000       25.000
   79.4039       30.000       22.000       24.000       24.000       30.000
   79.5352       36.000       25.000       21.000       24.000       18.000
   79.6665       28.000       26.000       20.000       24.000       19.000
   79.7978       30.000       16.000       22.000       25.000       23.000
   79.9291       24.000       19.000       25.000       35.000       24.000
   80.0604       29.000       16.000       29.000       25.000       29.000
   80.1917       33.000       23.000       32.000       27.000       25.000
   80.3230       30.000       33.000       29.000       23.000       15.000
   80.4543       34.000       29.000       26.000       24.000       17.000
   80.5856       34.000       20.000       16.000       24.000       29.000
   80.7169       23.000       27.000       22.000       18.000       20.000
   80.8482       20.000       25.000       23.000       17.000       17.000
   80.9795       23.000       22.000       18.000       18.000       15.000
   81.1108       18.000       16.000       17.000       16.000       11.000
   81.2422       16.000       22.000       35.000       35.000       23.000
   81.3735       20.000       31.000       27.000       29.000       18.000
   81.5048       21.000       28.000       30.000       24.000       26.000
   81.6361       26.000       23.000       28.000       28.000       23.000
   81.7674       21.000       21.000       27.000       24.000       33.000
   81.8987       22.000       31.000       27.000       25.000       23.000
   82.0300       16.000       25.000       29.000       29.000       25.000
   82.1613       21.000       21.000       20.000       15.000       25.000
   82.2926       30.000       21.000       23.000       25.000       25.000
   82.4239       19.000       17.000       29.000       20.000       33.000
   82.5552       28.000       18.000       23.000       21.000       16.000
   82.6865       20.000       20.000       20.000       24.000       30.000
   82.8178       23.000       28.000       31.000       19.000       31.000
   82.9491       23.000       17.000       25.000       21.000       33.000
   83.0804       29.000       16.000       26.000       27.000       24.000
   83.2117       22.000       31.000       34.000       37.000       31.000
   83.3430       30.000       36.000       39.000       46.000       38.000
   83.4743       31.000       36.000       28.000       36.000       33.000
   83.6056       31.000       36.000       27.000       31.000       29.000
   83.7369       37.000       35.000       29.000       34.000       24.000
   83.8682       32.000       45.000       35.000       48.000       36.000
   83.9995       33.000       28.000       26.000       35.000       37.000
   84.1308       34.000       27.000       33.000       25.000       30.000
   84.2621       20.000       20.000       20.000       36.000       19.000
   84.3934       24.000       27.000       32.000       29.000       24.000
   84.5247       26.000       22.000       26.000       31.000       22.000
   84.6560       26.000       20.000       22.000       26.000       30.000
   84.7873       34.000       22.000       26.000       33.000       21.000
   84.9186       31.000       24.000       30.000       33.000       33.000
   85.0499       21.000       31.000       25.000       32.000       24.000
   85.1812       22.000       25.000       27.000       25.000       23.000
   85.3125       25.000       25.000       36.000       30.000       26.000
   85.4438       31.000       44.000       26.000       38.000       31.000
   85.5751       39.000       27.000       35.000       38.000       33.000
   85.7064       35.000       30.000       39.000       27.000       29.000
   85.8377       23.000       27.000       32.000       34.000       18.000
   85.9691       38.000       35.000       20.000       22.000       23.000
   86.1004       27.000       24.000       35.000       18.000       23.000
   86.2317       21.000       26.000       24.000       34.000       34.000
   86.3630       35.000       29.000       33.000       34.000       27.000
   86.4943       36.000       32.000       34.000       31.000       24.000
   86.6256       25.000       35.000       36.000       34.000       25.000
   86.7569       32.000       33.000       29.000       34.000       29.000
   86.8882       31.000       29.000       29.000       31.000       16.000
   87.0195       36.000       17.000       27.000       25.000       23.000
   87.1508       21.000       25.000       19.000       26.000       21.000
   87.2821       22.000       23.000       26.000       20.000       15.000
   87.4134       25.000       13.000       19.000       33.000       19.000
   87.5447       20.000       16.000       26.000       21.000       14.000
   87.6760       23.000       28.000       21.000       23.000       12.000
   87.8073       12.000       17.000       31.000       29.000       17.000
   87.9386       17.000       18.000       19.000       27.000       14.000
   88.0699       24.000       24.000       15.000       23.000       20.000
   88.2012       21.000       24.000        8.000       17.000       21.000
   88.3325       18.000       26.000       20.000       22.000       28.000
   88.4638       20.000       23.000       31.000       34.000       14.000
   88.5951       20.000       22.000       24.000       28.000       15.000
   88.7264       15.000       27.000       21.000       28.000       28.000
   88.8577       16.000       32.000       19.000       35.000       20.000
   88.9890       16.000       24.000       18.000       15.000       31.000
   89.1203       27.000       27.000       28.000       24.000       26.000
   89.2516       21.000       16.000       28.000       27.000       18.000
   89.3829       23.000       27.000       31.000       19.000       20.000
   89.5142       22.000       15.000       22.000       19.000       22.000
   89.6455       31.000       27.000       21.000       15.000       31.000
   89.7768       31.000       30.000       22.000       22.000       28.000
   89.9081       39.000       36.000       29.000       38.000
## END= 
