6.005630280 309.0
6.031890845 248.0
6.058151411 282.0
6.084411976 259.0
6.110672541 291.0
6.136933107 302.0
6.163193672 225.0
6.189454237 280.0
6.215714803 264.0
6.241975368 280.0
6.268235934 261.0
6.294496499 263.0
6.320757064 266.0
6.347017630 254.0
6.373278195 258.0
6.399538760 284.0
6.425799326 254.0
6.452059891 239.0
6.478320456 266.0
6.504581022 266.0
6.530841587 234.0
6.557102152 262.0
6.583362718 265.0
6.609623283 255.0
6.635883848 258.0
6.662144414 248.0
6.688404979 240.0
6.714665545 248.0
6.740926110 270.0
6.767186675 219.0
6.793447241 250.0
6.819707806 256.0
6.845968371 224.0
6.872228937 231.0
6.898489502 255.0
6.924750067 231.0
6.951010633 242.0
6.977271198 255.0
7.003531763 239.0
7.029792329 223.0
7.056052894 248.0
7.082313459 252.0
7.108574025 240.0
7.134834590 238.0
7.161095156 222.0
7.187355721 224.0
7.213616286 218.0
7.239876852 213.0
7.266137417 212.0
7.292397982 241.0
7.318658548 233.0
7.344919113 210.0
7.371179678 234.0
7.397440244 220.0
7.423700809 217.0
7.449961374 224.0
7.476221940 249.0
7.502482505 234.0
7.528743070 225.0
7.555003636 214.0
7.581264201 218.0
7.607524767 230.0
7.633785332 207.0
7.660045897 250.0
7.686306463 214.0
7.712567028 225.0
7.738827593 220.0
7.765088159 223.0
7.791348724 220.0
7.817609289 213.0
7.843869855 231.0
7.870130420 234.0
7.896390985 218.0
7.922651551 211.0
7.948912116 221.0
7.975172682 205.0
8.001433247 216.0
8.027693812 213.0
8.053954378 213.0
8.080214943 240.0
8.106475508 201.0
8.132736074 209.0
8.158996639 212.0
8.185257204 194.0
8.211517770 215.0
8.237778335 203.0
8.264038900 211.0
8.290299466 195.0
8.316560031 190.0
8.342820596 187.0
8.369081162 200.0
8.395341727 209.0
8.421602293 174.0
8.447862858 194.0
8.474123423 212.0
8.500383989 201.0
8.526644554 219.0
8.552905119 166.0
8.579165685 209.0
8.605426250 201.0
8.631686815 198.0
8.657947381 185.0
8.684207946 209.0
8.710468511 205.0
8.736729077 198.0
8.762989642 219.0
8.789250207 195.0
8.815510773 211.0
8.841771338 173.0
8.868031904 188.0
8.894292469 209.0
8.920553034 186.0
8.946813600 185.0
8.973074165 168.0
8.999334730 186.0
9.025595296 183.0
9.051855861 172.0
9.078116426 173.0
9.104376992 173.0
9.130637557 187.0
9.156898122 184.0
9.183158688 191.0
9.209419253 180.0
9.235679818 166.0
9.261940384 174.0
9.288200949 183.0
9.314461515 168.0
9.340722080 181.0
9.366982645 169.0
9.393243211 177.0
9.419503776 164.0
9.445764341 202.0
9.472024907 203.0
9.498285472 200.0
9.524546037 171.0
9.550806603 189.0
9.577067168 180.0
9.603327733 181.0
9.629588299 190.0
9.655848864 185.0
9.682109429 176.0
9.708369995 160.0
9.734630560 177.0
9.760891126 174.0
9.787151691 148.0
9.813412256 158.0
9.839672822 193.0
9.865933387 196.0
9.892193952 168.0
9.918454518 150.0
9.944715083 148.0
9.970975648 169.0
9.997236214 151.0
10.023496779 174.0
10.049757344 145.0
10.076017910 163.0
10.102278475 165.0
10.128539040 182.0
10.154799606 151.0
10.181060171 197.0
10.207320737 153.0
10.233581302 188.0
10.259841867 181.0
10.286102433 177.0
10.312362998 153.0
10.338623563 176.0
10.364884129 159.0
10.391144694 162.0
10.417405259 154.0
10.443665825 159.0
10.469926390 162.0
10.496186955 168.0
10.522447521 138.0
10.548708086 151.0
10.574968651 176.0
10.601229217 180.0
10.627489782 154.0
10.653750348 165.0
10.680010913 169.0
10.706271478 169.0
10.732532044 168.0
10.758792609 158.0
10.785053174 162.0
10.811313740 179.0
10.837574305 153.0
10.863834870 163.0
10.890095436 140.0
10.916356001 149.0
10.942616566 148.0
10.968877132 149.0
10.995137697 146.0
11.021398262 146.0
11.047658828 158.0
11.073919393 144.0
11.100179959 146.0
11.126440524 142.0
11.152701089 154.0
11.178961655 129.0
11.205222220 142.0
11.231482785 144.0
11.257743351 145.0
11.284003916 138.0
11.310264481 150.0
11.336525047 138.0
11.362785612 137.0
11.389046177 156.0
11.415306743 136.0
11.441567308 155.0
11.467827873 146.0
11.494088439 148.0
11.520349004 155.0
11.546609570 138.0
11.572870135 160.0
11.599130700 149.0
11.625391266 169.0
11.651651831 160.0
11.677912396 125.0
11.704172962 163.0
11.730433527 155.0
11.756694092 165.0
11.782954658 177.0
11.809215223 191.0
11.835475788 175.0
11.861736354 162.0
11.887996919 127.0
11.914257485 137.0
11.940518050 123.0
11.966778615 140.0
11.993039181 136.0
12.019299746 146.0
12.045560311 156.0
12.071820877 157.0
12.098081442 160.0
12.124342007 137.0
12.150602573 139.0
12.176863138 144.0
12.203123703 172.0
12.229384269 136.0
12.255644834 144.0
12.281905399 142.0
12.308165965 151.0
12.334426530 150.0
12.360687096 122.0
12.386947661 172.0
12.413208226 150.0
12.439468792 131.0
12.465729357 153.0
12.491989922 126.0
12.518250488 123.0
12.544511053 141.0
12.570771618 150.0
12.597032184 125.0
12.623292749 129.0
12.649553314 125.0
12.675813880 153.0
12.702074445 155.0
12.728335010 123.0
12.754595576 121.0
12.780856141 138.0
12.807116707 108.0
12.833377272 151.0
12.859637837 149.0
12.885898403 120.0
12.912158968 129.0
12.938419533 130.0
12.964680099 131.0
12.990940664 128.0
13.017201229 134.0
13.043461795 132.0
13.069722360 118.0
13.095982925 136.0
13.122243491 123.0
13.148504056 130.0
13.174764621 123.0
13.201025187 120.0
13.227285752 108.0
13.253546318 117.0
13.279806883 106.0
13.306067448 120.0
13.332328014 118.0
13.358588579 122.0
13.384849144 106.0
13.411109710 117.0
13.437370275 131.0
13.463630840 139.0
13.489891406 143.0
13.516151971 128.0
13.542412536 111.0
13.568673102 111.0
13.594933667 139.0
13.621194232 104.0
13.647454798 122.0
13.673715363 115.0
13.699975929 134.0
13.726236494 130.0
13.752497059 103.0
13.778757625 126.0
13.805018190 109.0
13.831278755 115.0
13.857539321 107.0
13.883799886 128.0
13.910060451 121.0
13.936321017 136.0
13.962581582 119.0
13.988842147 126.0
14.015102713 136.0
14.041363278 117.0
14.067623843 128.0
14.093884409 106.0
14.120144974 115.0
14.146405540 104.0
14.172666105 128.0
14.198926670 121.0
14.225187236 127.0
14.251447801 121.0
14.277708366 97.0
14.303968932 111.0
14.330229497 115.0
14.356490062 112.0
14.382750628 111.0
14.409011193 101.0
14.435271758 123.0
14.461532324 118.0
14.487792889 111.0
14.514053454 106.0
14.540314020 106.0
14.566574585 112.0
14.592835151 116.0
14.619095716 116.0
14.645356281 117.0
14.671616847 94.0
14.697877412 116.0
14.724137977 134.0
14.750398543 119.0
14.776659108 122.0
14.802919673 123.0
14.829180239 106.0
14.855440804 116.0
14.881701369 120.0
14.907961935 90.0
14.934222500 116.0
14.960483065 105.0
14.986743631 112.0
15.013004196 97.0
15.039264762 109.0
15.065525327 127.0
15.091785892 115.0
15.118046458 119.0
15.144307023 95.0
15.170567588 103.0
15.196828154 93.0
15.223088719 110.0
15.249349284 109.0
15.275609850 113.0
15.301870415 108.0
15.328130980 101.0
15.354391546 85.0
15.380652111 119.0
15.406912676 106.0
15.433173242 100.0
15.459433807 93.0
15.485694373 103.0
15.511954938 100.0
15.538215503 85.0
15.564476069 91.0
15.590736634 99.0
15.616997199 105.0
15.643257765 102.0
15.669518330 99.0
15.695778895 109.0
15.722039461 93.0
15.748300026 88.0
15.774560591 95.0
15.800821157 104.0
15.827081722 101.0
15.853342288 81.0
15.879602853 114.0
15.905863418 78.0
15.932123984 84.0
15.958384549 112.0
15.984645114 90.0
16.010905680 99.0
16.037166245 95.0
16.063426810 90.0
16.089687376 94.0
16.115947941 94.0
16.142208506 96.0
16.168469072 100.0
16.194729637 104.0
16.220990202 89.0
16.247250768 97.0
16.273511333 113.0
16.299771899 76.0
16.326032464 97.0
16.352293029 110.0
16.378553595 108.0
16.404814160 82.0
16.431074725 90.0
16.457335291 91.0
16.483595856 97.0
16.509856421 100.0
16.536116987 92.0
16.562377552 83.0
16.588638117 105.0
16.614898683 99.0
16.641159248 95.0
16.667419813 87.0
16.693680379 95.0
16.719940944 85.0
16.746201510 85.0
16.772462075 112.0
16.798722640 95.0
16.824983206 93.0
16.851243771 83.0
16.877504336 84.0
16.903764902 96.0
16.930025467 97.0
16.956286032 88.0
16.982546598 70.0
17.008807163 92.0
17.035067728 84.0
17.061328294 89.0
17.087588859 102.0
17.113849424 93.0
17.140109990 76.0
17.166370555 76.0
17.192631121 85.0
17.218891686 89.0
17.245152251 100.0
17.271412817 80.0
17.297673382 89.0
17.323933947 93.0
17.350194513 78.0
17.376455078 102.0
17.402715643 83.0
17.428976209 85.0
17.455236774 90.0
17.481497339 96.0
17.507757905 87.0
17.534018470 88.0
17.560279035 107.0
17.586539601 82.0
17.612800166 82.0
17.639060732 88.0
17.665321297 72.0
17.691581862 84.0
17.717842428 90.0
17.744102993 85.0
17.770363558 86.0
17.796624124 65.0
17.822884689 90.0
17.849145254 83.0
17.875405820 93.0
17.901666385 66.0
17.927926950 91.0
17.954187516 76.0
17.980448081 98.0
18.006708646 92.0
18.032969212 109.0
18.059229777 69.0
18.085490343 71.0
18.111750908 75.0
18.138011473 112.0
18.164272039 79.0
18.190532604 86.0
18.216793169 97.0
18.243053735 80.0
18.269314300 86.0
18.295574865 86.0
18.321835431 84.0
18.348095996 86.0
18.374356561 72.0
18.400617127 87.0
18.426877692 91.0
18.453138257 60.0
18.479398823 81.0
18.505659388 81.0
18.531919954 81.0
18.558180519 70.0
18.584441084 78.0
18.610701650 77.0
18.636962215 67.0
18.663222780 91.0
18.689483346 88.0
18.715743911 87.0
18.742004476 95.0
18.768265042 92.0
18.794525607 75.0
18.820786172 89.0
18.847046738 80.0
18.873307303 68.0
18.899567868 75.0
18.925828434 81.0
18.952088999 81.0
18.978349565 65.0
19.004610130 82.0
19.030870695 62.0
19.057131261 78.0
19.083391826 84.0
19.109652391 89.0
19.135912957 78.0
19.162173522 67.0
19.188434087 71.0
19.214694653 71.0
19.240955218 66.0
19.267215783 83.0
19.293476349 84.0
19.319736914 68.0
19.345997479 59.0
19.372258045 66.0
19.398518610 100.0
19.424779176 66.0
19.451039741 78.0
19.477300306 64.0
19.503560872 71.0
19.529821437 65.0
19.556082002 70.0
19.582342568 88.0
19.608603133 64.0
19.634863698 69.0
19.661124264 64.0
19.687384829 76.0
19.713645394 69.0
19.739905960 74.0
19.766166525 84.0
19.792427091 71.0
19.818687656 61.0
19.844948221 77.0
19.871208787 72.0
19.897469352 64.0
19.923729917 78.0
19.949990483 75.0
19.976251048 80.0
20.002511613 69.0
20.028772179 57.0
20.055032744 55.0
20.081293309 78.0
20.107553875 90.0
20.133814440 67.0
20.160075005 76.0
20.186335571 69.0
20.212596136 84.0
20.238856702 69.0
20.265117267 78.0
20.291377832 60.0
20.317638398 82.0
20.343898963 76.0
20.370159528 71.0
20.396420094 63.0
20.422680659 80.0
20.448941224 78.0
20.475201790 69.0
20.501462355 83.0
20.527722920 75.0
20.553983486 69.0
20.580244051 76.0
20.606504616 77.0
20.632765182 63.0
20.659025747 80.0
20.685286313 76.0
20.711546878 66.0
20.737807443 76.0
20.764068009 73.0
20.790328574 89.0
20.816589139 94.0
20.842849705 88.0
20.869110270 95.0
20.895370835 101.0
20.921631401 88.0
20.947891966 85.0
20.974152531 75.0
21.000413097 85.0
21.026673662 66.0
21.052934227 78.0
21.079194793 72.0
21.105455358 59.0
21.131715924 71.0
21.157976489 67.0
21.184237054 60.0
21.210497620 60.0
21.236758185 77.0
21.263018750 76.0
21.289279316 55.0
21.315539881 58.0
21.341800446 57.0
21.368061012 72.0
21.394321577 69.0
21.420582142 79.0
21.446842708 60.0
21.473103273 71.0
21.499363838 63.0
21.525624404 75.0
21.551884969 58.0
21.578145535 51.0
21.604406100 61.0
21.630666665 69.0
21.656927231 68.0
21.683187796 71.0
21.709448361 58.0
21.735708927 59.0
21.761969492 61.0
21.788230057 60.0
21.814490623 63.0
21.840751188 58.0
21.867011753 67.0
21.893272319 77.0
21.919532884 65.0
21.945793449 60.0
21.972054015 69.0
21.998314580 64.0
22.024575146 45.0
22.050835711 62.0
22.077096276 68.0
22.103356842 62.0
22.129617407 67.0
22.155877972 58.0
22.182138538 55.0
22.208399103 54.0
22.234659668 69.0
22.260920234 70.0
22.287180799 69.0
22.313441364 51.0
22.339701930 63.0
22.365962495 61.0
22.392223060 59.0
22.418483626 66.0
22.444744191 56.0
22.471004757 57.0
22.497265322 70.0
22.523525887 66.0
22.549786453 59.0
22.576047018 69.0
22.602307583 55.0
22.628568149 57.0
22.654828714 58.0
22.681089279 59.0
22.707349845 56.0
22.733610410 58.0
22.759870975 66.0
22.786131541 63.0
22.812392106 55.0
22.838652671 57.0
22.864913237 64.0
22.891173802 74.0
22.917434368 86.0
22.943694933 75.0
22.969955498 60.0
22.996216064 63.0
23.022476629 74.0
23.048737194 74.0
23.074997760 89.0
23.101258325 100.0
23.127518890 102.0
23.153779456 84.0
23.180040021 94.0
23.206300586 95.0
23.232561152 103.0
23.258821717 87.0
23.285082283 79.0
23.311342848 96.0
23.337603413 71.0
23.363863979 56.0
23.390124544 54.0
23.416385109 85.0
23.442645675 52.0
23.468906240 79.0
23.495166805 68.0
23.521427371 83.0
23.547687936 54.0
23.573948501 64.0
23.600209067 70.0
23.626469632 72.0
23.652730197 52.0
23.678990763 64.0
23.705251328 56.0
23.731511894 54.0
23.757772459 56.0
23.784033024 47.0
23.810293590 62.0
23.836554155 60.0
23.862814720 61.0
23.889075286 67.0
23.915335851 53.0
23.941596416 50.0
23.967856982 63.0
23.994117547 57.0
24.020378112 55.0
24.046638678 56.0
24.072899243 53.0
24.099159808 43.0
24.125420374 53.0
24.151680939 48.0
24.177941505 55.0
24.204202070 57.0
24.230462635 58.0
24.256723201 59.0
24.282983766 55.0
24.309244331 55.0
24.335504897 59.0
24.361765462 53.0
24.388026027 71.0
24.414286593 54.0
24.440547158 61.0
24.466807723 52.0
24.493068289 65.0
24.519328854 58.0
24.545589419 61.0
24.571849985 68.0
24.598110550 56.0
24.624371116 68.0
24.650631681 61.0
24.676892246 48.0
24.703152812 51.0
24.729413377 51.0
24.755673942 52.0
24.781934508 56.0
24.808195073 49.0
24.834455638 59.0
24.860716204 60.0
24.886976769 51.0
24.913237334 43.0
24.939497900 50.0
24.965758465 65.0
24.992019030 70.0
25.018279596 55.0
25.044540161 56.0
25.070800727 49.0
25.097061292 71.0
25.123321857 51.0
25.149582423 58.0
25.175842988 63.0
25.202103553 46.0
25.228364119 53.0
25.254624684 49.0
25.280885249 55.0
25.307145815 66.0
25.333406380 51.0
25.359666945 57.0
25.385927511 61.0
25.412188076 65.0
25.438448641 70.0
25.464709207 63.0
25.490969772 61.0
25.517230338 58.0
25.543490903 68.0
25.569751468 49.0
25.596012034 59.0
25.622272599 60.0
25.648533164 57.0
25.674793730 66.0
25.701054295 58.0
25.727314860 52.0
25.753575426 42.0
25.779835991 55.0
25.806096556 49.0
25.832357122 50.0
25.858617687 65.0
25.884878252 61.0
25.911138818 52.0
25.937399383 60.0
25.963659949 69.0
25.989920514 54.0
26.016181079 70.0
26.042441645 62.0
26.068702210 57.0
26.094962775 45.0
26.121223341 68.0
26.147483906 75.0
26.173744471 62.0
26.200005037 58.0
26.226265602 62.0
26.252526167 71.0
26.278786733 49.0
26.305047298 63.0
26.331307863 70.0
26.357568429 69.0
26.383828994 64.0
26.410089560 72.0
26.436350125 74.0
26.462610690 67.0
26.488871256 63.0
26.515131821 76.0
26.541392386 54.0
26.567652952 75.0
26.593913517 75.0
26.620174082 75.0
26.646434648 84.0
26.672695213 78.0
26.698955778 86.0
26.725216344 101.0
26.751476909 92.0
26.777737474 128.0
26.803998040 104.0
26.830258605 99.0
26.856519171 75.0
26.882779736 72.0
26.909040301 56.0
26.935300867 41.0
26.961561432 47.0
26.987821997 59.0
27.014082563 50.0
27.040343128 44.0
27.066603693 42.0
27.092864259 55.0
27.119124824 58.0
27.145385389 51.0
27.171645955 47.0
27.197906520 51.0
27.224167086 41.0
27.250427651 47.0
27.276688216 61.0
27.302948782 51.0
27.329209347 54.0
27.355469912 39.0
27.381730478 57.0
27.407991043 51.0
27.434251608 54.0
27.460512174 62.0
27.486772739 55.0
27.513033304 66.0
27.539293870 53.0
27.565554435 59.0
27.591815000 63.0
27.618075566 50.0
27.644336131 62.0
27.670596697 71.0
27.696857262 57.0
27.723117827 39.0
27.749378393 39.0
27.775638958 55.0
27.801899523 49.0
27.828160089 58.0
27.854420654 52.0
27.880681219 60.0
27.906941785 56.0
27.933202350 82.0
27.959462915 56.0
27.985723481 49.0
28.011984046 49.0
28.038244611 59.0
28.064505177 60.0
28.090765742 69.0
28.117026308 63.0
28.143286873 60.0
28.169547438 71.0
28.195808004 54.0
28.222068569 67.0
28.248329134 67.0
28.274589700 54.0
28.300850265 55.0
28.327110830 68.0
28.353371396 50.0
28.379631961 64.0
28.405892526 57.0
28.432153092 50.0
28.458413657 41.0
28.484674222 45.0
28.510934788 64.0
28.537195353 52.0
28.563455919 61.0
28.589716484 77.0
28.615977049 47.0
28.642237615 42.0
28.668498180 62.0
28.694758745 37.0
28.721019311 55.0
28.747279876 68.0
28.773540441 58.0
28.799801007 70.0
28.826061572 51.0
28.852322137 58.0
28.878582703 65.0
28.904843268 52.0
28.931103833 47.0
28.957364399 54.0
28.983624964 64.0
29.009885530 43.0
29.036146095 58.0
29.062406660 52.0
29.088667226 66.0
29.114927791 62.0
29.141188356 70.0
29.167448922 77.0
29.193709487 82.0
29.219970052 83.0
29.246230618 104.0
29.272491183 96.0
29.298751748 120.0
29.325012314 113.0
29.351272879 129.0
29.377533444 164.0
29.403794010 191.0
29.430054575 217.0
29.456315141 331.0
29.482575706 369.0
29.508836271 486.0
29.535096837 613.0
29.561357402 697.0
29.587617967 692.0
29.613878533 648.0
29.640139098 554.0
29.666399663 390.0
29.692660229 298.0
29.718920794 196.0
29.745181359 144.0
29.771441925 105.0
29.797702490 84.0
29.823963055 88.0
29.850223621 89.0
29.876484186 88.0
29.902744752 63.0
29.929005317 90.0
29.955265882 58.0
29.981526448 70.0
30.007787013 73.0
30.034047578 71.0
30.060308144 65.0
30.086568709 67.0
30.112829274 71.0
30.139089840 78.0
30.165350405 88.0
30.191610970 83.0
30.217871536 111.0
30.244132101 118.0
30.270392666 111.0
30.296653232 101.0
30.322913797 91.0
30.349174363 75.0
30.375434928 54.0
30.401695493 60.0
30.427956059 56.0
30.454216624 64.0
30.480477189 47.0
30.506737755 43.0
30.532998320 42.0
30.559258885 36.0
30.585519451 44.0
30.611780016 54.0
30.638040581 56.0
30.664301147 47.0
30.690561712 50.0
30.716822277 46.0
30.743082843 48.0
30.769343408 37.0
30.795603974 44.0
30.821864539 50.0
30.848125104 47.0
30.874385670 44.0
30.900646235 46.0
30.926906800 46.0
30.953167366 63.0
30.979427931 49.0
31.005688496 56.0
31.031949062 65.0
31.058209627 62.0
31.084470192 61.0
31.110730758 87.0
31.136991323 68.0
31.163251889 75.0
31.189512454 55.0
31.215773019 49.0
31.242033585 73.0
31.268294150 81.0
31.294554715 74.0
31.320815281 63.0
31.347075846 57.0
31.373336411 55.0
31.399596977 48.0
31.425857542 60.0
31.452118107 63.0
31.478378673 57.0
31.504639238 65.0
31.530899803 72.0
31.557160369 72.0
31.583420934 44.0
31.609681500 78.0
31.635942065 65.0
31.662202630 61.0
31.688463196 74.0
31.714723761 58.0
31.740984326 67.0
31.767244892 64.0
31.793505457 67.0
31.819766022 64.0
31.846026588 75.0
31.872287153 67.0
31.898547718 49.0
31.924808284 73.0
31.951068849 57.0
31.977329414 66.0
32.003589980 81.0
32.029850545 67.0
32.056111111 72.0
32.082371676 87.0
32.108632241 65.0
32.134892807 103.0
32.161153372 111.0
32.187413937 105.0
32.213674503 169.0
32.239935068 168.0
32.266195633 171.0
32.292456199 227.0
32.318716764 297.0
32.344977329 417.0
32.371237895 409.0
32.397498460 447.0
32.423759025 388.0
32.450019591 315.0
32.476280156 261.0
32.502540722 191.0
32.528801287 170.0
32.555061852 149.0
32.581322418 160.0
32.607582983 185.0
32.633843548 210.0
32.660104114 246.0
32.686364679 291.0
32.712625244 304.0
32.738885810 316.0
32.765146375 314.0
32.791406940 355.0
32.817667506 283.0
32.843928071 217.0
32.870188636 219.0
32.896449202 162.0
32.922709767 124.0
32.948970333 102.0
32.975230898 90.0
33.001491463 83.0
33.027752029 86.0
33.054012594 80.0
33.080273159 79.0
33.106533725 96.0
33.132794290 89.0
33.159054855 88.0
33.185315421 72.0
33.211575986 96.0
33.237836551 81.0
33.264097117 81.0
33.290357682 99.0
33.316618247 101.0
33.342878813 132.0
33.369139378 128.0
33.395399944 146.0
33.421660509 91.0
33.447921074 124.0
33.474181640 97.0
33.500442205 85.0
33.526702770 114.0
33.552963336 79.0
33.579223901 88.0
33.605484466 90.0
33.631745032 76.0
33.658005597 73.0
33.684266162 86.0
33.710526728 90.0
33.736787293 68.0
33.763047858 92.0
33.789308424 84.0
33.815568989 72.0
33.841829555 80.0
33.868090120 85.0
33.894350685 96.0
33.920611251 109.0
33.946871816 104.0
33.973132381 119.0
33.999392947 108.0
34.025653512 111.0
34.051914077 101.0
34.078174643 119.0
34.104435208 112.0
34.130695773 103.0
34.156956339 93.0
34.183216904 109.0
34.209477469 86.0
34.235738035 76.0
34.261998600 79.0
34.288259166 85.0
34.314519731 78.0
34.340780296 81.0
34.367040862 118.0
34.393301427 115.0
34.419561992 150.0
34.445822558 192.0
34.472083123 250.0
34.498343688 291.0
34.524604254 340.0
34.550864819 277.0
34.577125384 285.0
34.603385950 245.0
34.629646515 161.0
34.655907081 139.0
34.682167646 116.0
34.708428211 60.0
34.734688777 39.0
34.760949342 58.0
34.787209907 51.0
34.813470473 52.0
34.839731038 47.0
34.865991603 64.0
34.892252169 55.0
34.918512734 46.0
34.944773299 55.0
34.971033865 44.0
34.997294430 54.0
35.023554995 40.0
35.049815561 54.0
35.076076126 42.0
35.102336692 48.0
35.128597257 36.0
35.154857822 49.0
35.181118388 45.0
35.207378953 40.0
35.233639518 50.0
35.259900084 34.0
35.286160649 42.0
35.312421214 55.0
35.338681780 50.0
35.364942345 49.0
35.391202910 37.0
35.417463476 44.0
35.443724041 56.0
35.469984606 62.0
35.496245172 49.0
35.522505737 39.0
35.548766303 37.0
35.575026868 42.0
35.601287433 38.0
35.627547999 33.0
35.653808564 51.0
35.680069129 40.0
35.706329695 38.0
35.732590260 39.0
35.758850825 39.0
35.785111391 39.0
35.811371956 49.0
35.837632521 50.0
35.863893087 42.0
35.890153652 45.0
35.916414217 44.0
35.942674783 51.0
35.968935348 39.0
35.995195914 36.0
36.021456479 56.0
36.047717044 63.0
36.073977610 85.0
36.100238175 66.0
36.126498740 106.0
36.152759306 101.0
36.179019871 100.0
36.205280436 90.0
36.231541002 84.0
36.257801567 60.0
36.284062132 51.0
36.310322698 32.0
36.336583263 43.0
36.362843828 51.0
36.389104394 33.0
36.415364959 35.0
36.441625525 28.0
36.467886090 31.0
36.494146655 48.0
36.520407221 32.0
36.546667786 41.0
36.572928351 41.0
36.599188917 46.0
36.625449482 49.0
36.651710047 47.0
36.677970613 51.0
36.704231178 33.0
36.730491743 56.0
36.756752309 51.0
36.783012874 56.0
36.809273439 65.0
36.835534005 67.0
36.861794570 77.0
36.888055136 54.0
36.914315701 65.0
36.940576266 61.0
36.966836832 49.0
36.993097397 51.0
37.019357962 57.0
37.045618528 50.0
37.071879093 52.0
37.098139658 38.0
37.124400224 41.0
37.150660789 33.0
37.176921354 47.0
37.203181920 44.0
37.229442485 46.0
37.255703050 36.0
37.281963616 43.0
37.308224181 56.0
37.334484747 25.0
37.360745312 33.0
37.387005877 46.0
37.413266443 38.0
37.439527008 45.0
37.465787573 31.0
37.492048139 36.0
37.518308704 49.0
37.544569269 54.0
37.570829835 42.0
37.597090400 41.0
37.623350965 41.0
37.649611531 33.0
37.675872096 35.0
37.702132661 39.0
37.728393227 37.0
37.754653792 35.0
37.780914358 34.0
37.807174923 44.0
37.833435488 37.0
37.859696054 40.0
37.885956619 44.0
37.912217184 29.0
37.938477750 34.0
37.964738315 34.0
37.990998880 37.0
38.017259446 38.0
38.043520011 38.0
38.069780576 50.0
38.096041142 53.0
38.122301707 43.0
38.148562272 42.0
38.174822838 37.0
38.201083403 37.0
38.227343969 41.0
38.253604534 36.0
38.279865099 43.0
38.306125665 34.0
38.332386230 48.0
38.358646795 44.0
38.384907361 24.0
38.411167926 28.0
38.437428491 36.0
38.463689057 33.0
38.489949622 28.0
38.516210187 35.0
38.542470753 30.0
38.568731318 38.0
38.594991884 40.0
38.621252449 38.0
38.647513014 33.0
38.673773580 33.0
38.700034145 43.0
38.726294710 39.0
38.752555276 48.0
38.778815841 54.0
38.805076406 68.0
38.831336972 75.0
38.857597537 74.0
38.883858102 73.0
38.910118668 90.0
38.936379233 67.0
38.962639798 89.0
38.988900364 78.0
39.015160929 79.0
39.041421495 81.0
39.067682060 69.0
39.093942625 66.0
39.120203191 52.0
39.146463756 44.0
39.172724321 52.0
39.198984887 43.0
39.225245452 55.0
39.251506017 43.0
39.277766583 50.0
39.304027148 48.0
39.330287713 61.0
39.356548279 70.0
39.382808844 57.0
39.409069409 64.0
39.435329975 62.0
39.461590540 61.0
39.487851106 84.0
39.514111671 88.0
39.540372236 127.0
39.566632802 122.0
39.592893367 131.0
39.619153932 105.0
39.645414498 108.0
39.671675063 113.0
39.697935628 88.0
39.724196194 76.0
39.750456759 53.0
39.776717324 61.0
39.802977890 46.0
39.829238455 56.0
39.855499020 49.0
39.881759586 48.0
39.908020151 45.0
39.934280717 52.0
39.960541282 34.0
39.986801847 39.0
40.013062413 30.0
40.039322978 42.0
40.065583543 34.0
40.091844109 30.0
40.118104674 35.0
40.144365239 39.0
40.170625805 31.0
40.196886370 38.0
40.223146935 28.0
40.249407501 32.0
40.275668066 34.0
40.301928631 35.0
40.328189197 39.0
40.354449762 20.0
40.380710328 42.0
40.406970893 29.0
40.433231458 30.0
40.459492024 33.0
40.485752589 41.0
40.512013154 25.0
40.538273720 35.0
40.564534285 39.0
40.590794850 33.0
40.617055416 32.0
40.643315981 54.0
40.669576546 45.0
40.695837112 30.0
40.722097677 50.0
40.748358242 31.0
40.774618808 42.0
40.800879373 40.0
40.827139939 41.0
40.853400504 42.0
40.879661069 51.0
40.905921635 43.0
40.932182200 50.0
40.958442765 52.0
40.984703331 61.0
41.010963896 49.0
41.037224461 53.0
41.063485027 57.0
41.089745592 59.0
41.116006157 58.0
41.142266723 65.0
41.168527288 57.0
41.194787853 61.0
41.221048419 70.0
41.247308984 81.0
41.273569550 82.0
41.299830115 97.0
41.326090680 90.0
41.352351246 126.0
41.378611811 133.0
41.404872376 150.0
41.431132942 172.0
41.457393507 207.0
41.483654072 212.0
41.509914638 171.0
41.536175203 165.0
41.562435768 147.0
41.588696334 113.0
41.614956899 112.0
41.641217464 68.0
41.667478030 76.0
41.693738595 76.0
41.719999161 73.0
41.746259726 60.0
41.772520291 72.0
41.798780857 83.0
41.825041422 66.0
41.851301987 62.0
41.877562553 58.0
41.903823118 60.0
41.930083683 42.0
41.956344249 50.0
41.982604814 45.0
42.008865379 51.0
42.035125945 35.0
42.061386510 34.0
42.087647075 43.0
42.113907641 51.0
42.140168206 33.0
42.166428772 46.0
42.192689337 37.0
42.218949902 37.0
42.245210468 40.0
42.271471033 33.0
42.297731598 24.0
42.323992164 33.0
42.350252729 36.0
42.376513294 30.0
42.402773860 36.0
42.429034425 59.0
42.455294990 30.0
42.481555556 35.0
42.507816121 58.0
42.534076687 35.0
42.560337252 36.0
42.586597817 39.0
42.612858383 29.0
42.639118948 37.0
42.665379513 28.0
42.691640079 31.0
42.717900644 28.0
42.744161209 24.0
42.770421775 38.0
42.796682340 32.0
42.822942905 33.0
42.849203471 30.0
42.875464036 44.0
42.901724601 25.0
42.927985167 47.0
42.954245732 52.0
42.980506298 53.0
43.006766863 43.0
43.033027428 60.0
43.059287994 54.0
43.085548559 73.0
43.111809124 52.0
43.138069690 47.0
43.164330255 42.0
43.190590820 55.0
43.216851386 59.0
43.243111951 84.0
43.269372516 74.0
43.295633082 112.0
43.321893647 114.0
43.348154212 102.0
43.374414778 99.0
43.400675343 80.0
43.426935909 103.0
43.453196474 74.0
43.479457039 72.0
43.505717605 62.0
43.531978170 49.0
43.558238735 59.0
43.584499301 45.0
43.610759866 35.0
43.637020431 41.0
43.663280997 32.0
43.689541562 40.0
43.715802127 41.0
43.742062693 40.0
43.768323258 50.0
43.794583823 43.0
43.820844389 44.0
43.847104954 42.0
43.873365520 38.0
43.899626085 40.0
43.925886650 39.0
43.952147216 43.0
43.978407781 42.0
44.004668346 42.0
44.030928912 39.0
44.057189477 39.0
44.083450042 49.0
44.109710608 58.0
44.135971173 41.0
44.162231738 35.0
44.188492304 48.0
44.214752869 39.0
44.241013434 43.0
44.267274000 45.0
44.293534565 46.0
44.319795131 44.0
44.346055696 41.0
44.372316261 44.0
44.398576827 52.0
44.424837392 46.0
44.451097957 43.0
44.477358523 39.0
44.503619088 28.0
44.529879653 41.0
44.556140219 46.0
44.582400784 36.0
44.608661349 41.0
44.634921915 34.0
44.661182480 30.0
44.687443045 45.0
44.713703611 45.0
44.739964176 46.0
44.766224742 30.0
44.792485307 36.0
44.818745872 44.0
44.845006438 35.0
44.871267003 32.0
44.897527568 42.0
44.923788134 30.0
44.950048699 29.0
44.976309264 38.0
45.002569830 31.0
45.028830395 40.0
45.055090960 31.0
45.081351526 28.0
45.107612091 26.0
45.133872656 25.0
45.160133222 33.0
45.186393787 36.0
45.212654353 33.0
45.238914918 29.0
45.265175483 33.0
45.291436049 41.0
45.317696614 25.0
45.343957179 32.0
45.370217745 30.0
45.396478310 27.0
45.422738875 41.0
45.448999441 27.0
45.475260006 37.0
45.501520571 24.0
45.527781137 28.0
45.554041702 26.0
45.580302267 29.0
45.606562833 27.0
45.632823398 46.0
45.659083964 32.0
45.685344529 35.0
45.711605094 35.0
45.737865660 29.0
45.764126225 35.0
45.790386790 54.0
45.816647356 43.0
45.842907921 47.0
45.869168486 59.0
45.895429052 55.0
45.921689617 48.0
45.947950182 58.0
45.974210748 63.0
46.000471313 63.0
46.026731878 48.0
46.052992444 67.0
46.079253009 60.0
46.105513575 59.0
46.131774140 37.0
46.158034705 39.0
46.184295271 36.0
46.210555836 42.0
46.236816401 29.0
46.263076967 52.0
46.289337532 44.0
46.315598097 36.0
46.341858663 35.0
46.368119228 22.0
46.394379793 33.0
46.420640359 32.0
46.446900924 42.0
46.473161490 34.0
46.499422055 24.0
46.525682620 18.0
46.551943186 38.0
46.578203751 34.0
46.604464316 31.0
46.630724882 30.0
46.656985447 43.0
46.683246012 35.0
46.709506578 40.0
46.735767143 36.0
46.762027708 39.0
46.788288274 39.0
46.814548839 38.0
46.840809404 30.0
46.867069970 31.0
46.893330535 44.0
46.919591101 57.0
46.945851666 49.0
46.972112231 54.0
46.998372797 50.0
47.024633362 88.0
47.050893927 64.0
47.077154493 66.0
47.103415058 80.0
47.129675623 80.0
47.155936189 89.0
47.182196754 82.0
47.208457319 78.0
47.234717885 83.0
47.260978450 90.0
47.287239015 74.0
47.313499581 77.0
47.339760146 101.0
47.366020712 66.0
47.392281277 96.0
47.418541842 88.0
47.444802408 63.0
47.471062973 68.0
47.497323538 75.0
47.523584104 85.0
47.549844669 77.0
47.576105234 90.0
47.602365800 97.0
47.628626365 104.0
47.654886930 131.0
47.681147496 113.0
47.707408061 121.0
47.733668626 87.0
47.759929192 100.0
47.786189757 103.0
47.812450323 87.0
47.838710888 81.0
47.864971453 67.0
47.891232019 64.0
47.917492584 53.0
47.943753149 65.0
47.970013715 43.0
47.996274280 39.0
48.022534845 57.0
48.048795411 48.0
48.075055976 51.0
48.101316541 45.0
48.127577107 49.0
48.153837672 54.0
48.180098237 35.0
48.206358803 44.0
48.232619368 31.0
48.258879934 43.0
48.285140499 40.0
48.311401064 29.0
48.337661630 36.0
48.363922195 59.0
48.390182760 33.0
48.416443326 46.0
48.442703891 45.0
48.468964456 30.0
48.495225022 36.0
48.521485587 38.0
48.547746152 48.0
48.574006718 62.0
48.600267283 76.0
48.626527848 99.0
48.652788414 96.0
48.679048979 95.0
48.705309545 113.0
48.731570110 84.0
48.757830675 95.0
48.784091241 86.0
48.810351806 74.0
48.836612371 76.0
48.862872937 63.0
48.889133502 41.0
48.915394067 33.0
48.941654633 38.0
48.967915198 40.0
48.994175763 40.0
49.020436329 37.0
49.046696894 37.0
49.072957459 37.0
49.099218025 46.0
49.125478590 29.0
49.151739156 33.0
49.177999721 42.0
49.204260286 30.0
49.230520852 24.0
49.256781417 41.0
49.283041982 37.0
49.309302548 34.0
49.335563113 39.0
49.361823678 34.0
49.388084244 32.0
49.414344809 29.0
49.440605374 34.0
49.466865940 33.0
49.493126505 34.0
49.519387070 37.0
49.545647636 32.0
49.571908201 40.0
49.598168767 38.0
49.624429332 34.0
49.650689897 37.0
49.676950463 35.0
49.703211028 49.0
49.729471593 43.0
49.755732159 47.0
49.781992724 45.0
49.808253289 37.0
49.834513855 39.0
49.860774420 44.0
49.887034985 56.0
49.913295551 56.0
49.939556116 57.0
49.965816682 38.0
49.992077247 64.0
50.018337812 50.0
50.044598378 49.0
50.070858943 46.0
50.097119508 56.0
50.123380074 38.0
50.149640639 52.0
50.175901204 58.0
50.202161770 39.0
50.228422335 43.0
50.254682900 50.0
50.280943466 47.0
50.307204031 37.0
50.333464596 41.0
50.359725162 46.0
50.385985727 35.0
50.412246293 39.0
50.438506858 54.0
50.464767423 49.0
50.491027989 33.0
50.517288554 29.0
50.543549119 29.0
50.569809685 42.0
50.596070250 32.0
50.622330815 38.0
50.648591381 31.0
50.674851946 36.0
50.701112511 39.0
50.727373077 38.0
50.753633642 25.0
50.779894207 30.0
50.806154773 31.0
50.832415338 29.0
50.858675904 39.0
50.884936469 32.0
50.911197034 32.0
50.937457600 39.0
50.963718165 43.0
50.989978730 43.0
51.016239296 39.0
51.042499861 40.0
51.068760426 43.0
51.095020992 37.0
51.121281557 43.0
51.147542122 34.0
51.173802688 32.0
51.200063253 34.0
51.226323818 34.0
51.252584384 28.0
51.278844949 35.0
51.305105515 26.0
51.331366080 29.0
51.357626645 39.0
51.383887211 23.0
51.410147776 32.0
51.436408341 37.0
51.462668907 24.0
51.488929472 29.0
51.515190037 31.0
51.541450603 32.0
51.567711168 35.0
51.593971733 40.0
51.620232299 36.0
51.646492864 37.0
51.672753429 40.0
51.699013995 40.0
51.725274560 33.0
51.751535126 43.0
51.777795691 62.0
51.804056256 80.0
51.830316822 132.0
51.856577387 141.0
51.882837952 139.0
51.909098518 153.0
51.935359083 155.0
51.961619648 148.0
51.987880214 138.0
52.014140779 128.0
52.040401344 130.0
52.066661910 119.0
52.092922475 102.0
52.119183040 77.0
52.145443606 71.0
52.171704171 47.0
52.197964737 48.0
52.224225302 40.0
52.250485867 47.0
52.276746433 47.0
52.303006998 24.0
52.329267563 37.0
52.355528129 24.0
52.381788694 35.0
52.408049259 27.0
52.434309825 36.0
52.460570390 29.0
52.486830955 23.0
52.513091521 25.0
52.539352086 24.0
52.565612651 35.0
52.591873217 25.0
52.618133782 21.0
52.644394348 29.0
52.670654913 18.0
52.696915478 30.0
52.723176044 32.0
52.749436609 33.0
52.775697174 20.0
52.801957740 33.0
52.828218305 24.0
52.854478870 26.0
52.880739436 23.0
52.907000001 30.0
52.933260566 28.0
52.959521132 30.0
52.985781697 25.0
53.012042262 18.0
53.038302828 26.0
53.064563393 42.0
53.090823959 23.0
53.117084524 28.0
53.143345089 31.0
53.169605655 25.0
53.195866220 24.0
53.222126785 29.0
53.248387351 30.0
53.274647916 36.0
53.300908481 22.0
53.327169047 22.0
53.353429612 31.0
53.379690177 31.0
53.405950743 33.0
53.432211308 28.0
53.458471873 33.0
53.484732439 23.0
53.510993004 31.0
53.537253570 35.0
53.563514135 28.0
53.589774700 37.0
53.616035266 38.0
53.642295831 34.0
53.668556396 23.0
53.694816962 24.0
53.721077527 33.0
53.747338092 34.0
53.773598658 21.0
53.799859223 16.0
53.826119788 32.0
53.852380354 34.0
53.878640919 40.0
53.904901485 32.0
53.931162050 37.0
53.957422615 26.0
53.983683181 33.0
54.009943746 26.0
54.036204311 33.0
54.062464877 26.0
54.088725442 42.0
54.114986007 34.0
54.141246573 25.0
54.167507138 29.0
54.193767703 33.0
54.220028269 34.0
54.246288834 36.0
54.272549399 42.0
54.298809965 34.0
54.325070530 31.0
54.351331096 23.0
54.377591661 32.0
54.403852226 34.0
54.430112792 39.0
54.456373357 33.0
54.482633922 35.0
54.508894488 38.0
54.535155053 32.0
54.561415618 30.0
54.587676184 42.0
54.613936749 22.0
54.640197314 22.0
54.666457880 36.0
54.692718445 27.0
54.718979010 20.0
54.745239576 25.0
54.771500141 30.0
54.797760707 22.0
54.824021272 29.0
54.850281837 33.0
54.876542403 25.0
54.902802968 29.0
54.929063533 31.0
54.955324099 33.0
54.981584664 31.0
55.007845229 24.0
55.034105795 41.0
55.060366360 31.0
55.086626925 24.0
55.112887491 31.0
55.139148056 25.0
55.165408621 38.0
55.191669187 26.0
55.217929752 18.0
55.244190318 40.0
55.270450883 38.0
55.296711448 20.0
55.322972014 38.0
55.349232579 28.0
55.375493144 28.0
55.401753710 29.0
55.428014275 20.0
55.454274840 30.0
55.480535406 28.0
55.506795971 30.0
55.533056536 28.0
55.559317102 31.0
55.585577667 32.0
55.611838232 27.0
55.638098798 30.0
55.664359363 33.0
55.690619929 27.0
55.716880494 29.0
55.743141059 19.0
55.769401625 18.0
55.795662190 32.0
55.821922755 27.0
55.848183321 23.0
55.874443886 20.0
55.900704451 24.0
55.926965017 29.0
55.953225582 35.0
55.979486147 33.0
56.005746713 26.0
56.032007278 31.0
56.058267843 24.0
56.084528409 42.0
56.110788974 35.0
56.137049540 39.0
56.163310105 40.0
56.189570670 35.0
56.215831236 31.0
56.242091801 35.0
56.268352366 28.0
56.294612932 47.0
56.320873497 35.0
56.347134062 26.0
56.373394628 37.0
56.399655193 37.0
56.425915758 33.0
56.452176324 44.0
56.478436889 40.0
56.504697454 55.0
56.530958020 64.0
56.557218585 71.0
56.583479151 78.0
56.609739716 86.0
56.636000281 86.0
56.662260847 100.0
56.688521412 92.0
56.714781977 103.0
56.741042543 106.0
56.767303108 104.0
56.793563673 98.0
56.819824239 81.0
56.846084804 59.0
56.872345369 61.0
56.898605935 80.0
56.924866500 64.0
56.951127065 62.0
56.977387631 37.0
57.003648196 34.0
57.029908762 37.0
57.056169327 40.0
57.082429892 35.0
57.108690458 35.0
57.134951023 38.0
57.161211588 46.0
57.187472154 35.0
57.213732719 38.0
57.239993284 49.0
57.266253850 31.0
57.292514415 28.0
57.318774980 40.0
57.345035546 30.0
57.371296111 33.0
57.397556676 42.0
57.423817242 38.0
57.450077807 53.0
57.476338373 45.0
57.502598938 52.0
57.528859503 60.0
57.555120069 67.0
57.581380634 65.0
57.607641199 64.0
57.633901765 43.0
57.660162330 45.0
57.686422895 48.0
57.712683461 48.0
57.738944026 45.0
57.765204591 39.0
57.791465157 47.0
57.817725722 35.0
57.843986288 33.0
57.870246853 40.0
57.896507418 36.0
57.922767984 31.0
57.949028549 20.0
57.975289114 46.0
58.001549680 33.0
58.027810245 34.0
58.054070810 33.0
58.080331376 38.0
58.106591941 20.0
58.132852506 27.0
58.159113072 35.0
58.185373637 26.0
58.211634202 47.0
58.237894768 33.0
58.264155333 42.0
58.290415899 39.0
58.316676464 23.0
58.342937029 42.0
58.369197595 33.0
58.395458160 30.0
58.421718725 35.0
58.447979291 31.0
58.474239856 32.0
58.500500421 27.0
58.526760987 30.0
58.553021552 34.0
58.579282117 28.0
58.605542683 41.0
58.631803248 35.0
58.658063813 39.0
58.684324379 46.0
58.710584944 35.0
58.736845510 32.0
58.763106075 36.0
58.789366640 42.0
58.815627206 32.0
58.841887771 40.0
58.868148336 33.0
58.894408902 33.0
58.920669467 30.0
58.946930032 38.0
58.973190598 30.0
58.999451163 38.0
59.025711728 47.0
59.051972294 31.0
59.078232859 34.0
59.104493424 39.0
59.130753990 32.0
59.157014555 34.0
59.183275121 32.0
59.209535686 29.0
59.235796251 31.0
59.262056817 29.0
59.288317382 34.0
59.314577947 26.0
59.340838513 26.0
59.367099078 31.0
59.393359643 34.0
59.419620209 27.0
59.445880774 37.0
59.472141339 41.0
59.498401905 35.0
59.524662470 34.0
59.550923035 40.0
59.577183601 33.0
59.603444166 35.0
59.629704732 39.0
59.655965297 34.0
59.682225862 26.0
59.708486428 46.0
59.734746993 38.0
59.761007558 24.0
59.787268124 30.0
59.813528689 32.0
59.839789254 34.0
59.866049820 29.0
59.892310385 28.0
59.918570950 31.0
59.944831516 35.0
59.971092081 49.0
59.997352646 42.0
60.023613212 58.0
60.049873777 51.0
60.076134343 56.0
60.102394908 74.0
60.128655473 68.0
60.154916039 74.0
60.181176604 66.0
60.207437169 61.0
60.233697735 58.0
60.259958300 59.0
60.286218865 45.0
60.312479431 47.0
60.338739996 74.0
60.365000561 36.0
60.391261127 50.0
60.417521692 56.0
60.443782257 41.0
60.470042823 47.0
60.496303388 45.0
60.522563954 40.0
60.548824519 45.0
60.575085084 32.0
60.601345650 31.0
60.627606215 31.0
60.653866780 49.0
60.680127346 36.0
60.706387911 30.0
60.732648476 45.0
60.758909042 53.0
60.785169607 52.0
60.811430172 75.0
60.837690738 59.0
60.863951303 63.0
60.890211868 52.0
60.916472434 51.0
60.942732999 48.0
60.968993565 55.0
60.995254130 64.0
61.021514695 43.0
61.047775261 48.0
61.074035826 46.0
61.100296391 35.0
61.126556957 36.0
61.152817522 54.0
61.179078087 34.0
61.205338653 42.0
61.231599218 47.0
61.257859783 49.0
61.284120349 43.0
61.310380914 36.0
61.336641479 37.0
61.362902045 32.0
61.389162610 42.0
61.415423176 26.0
61.441683741 29.0
61.467944306 45.0
61.494204872 40.0
61.520465437 37.0
61.546726002 35.0
61.572986568 44.0
61.599247133 28.0
61.625507698 25.0
61.651768264 41.0
61.678028829 38.0
61.704289394 45.0
61.730549960 33.0
61.756810525 34.0
61.783071091 43.0
61.809331656 30.0
61.835592221 19.0
61.861852787 37.0
61.888113352 29.0
61.914373917 28.0
61.940634483 34.0
61.966895048 36.0
61.993155613 26.0
62.019416179 26.0
62.045676744 37.0
62.071937309 28.0
62.098197875 27.0
62.124458440 31.0
62.150719005 40.0
62.176979571 24.0
62.203240136 50.0
62.229500702 32.0
62.255761267 65.0
62.282021832 57.0
62.308282398 66.0
62.334542963 56.0
62.360803528 83.0
62.387064094 71.0
62.413324659 105.0
62.439585224 113.0
62.465845790 104.0
62.492106355 113.0
62.518366920 112.0
62.544627486 89.0
62.570888051 120.0
62.597148616 99.0
62.623409182 99.0
62.649669747 73.0
62.675930313 89.0
62.702190878 63.0
62.728451443 63.0
62.754712009 55.0
62.780972574 74.0
62.807233139 61.0
62.833493705 48.0
62.859754270 49.0
62.886014835 49.0
62.912275401 46.0
62.938535966 42.0
62.964796531 42.0
62.991057097 43.0
63.017317662 38.0
63.043578227 37.0
63.069838793 38.0
63.096099358 31.0
63.122359924 34.0
63.148620489 22.0
63.174881054 31.0
63.201141620 41.0
63.227402185 34.0
63.253662750 35.0
63.279923316 37.0
63.306183881 37.0
63.332444446 33.0
63.358705012 39.0
63.384965577 33.0
63.411226142 34.0
63.437486708 30.0
63.463747273 24.0
63.490007838 37.0
63.516268404 42.0
63.542528969 30.0
63.568789535 37.0
63.595050100 30.0
63.621310665 35.0
63.647571231 59.0
63.673831796 50.0
63.700092361 40.0
63.726352927 56.0
63.752613492 24.0
63.778874057 39.0
63.805134623 36.0
63.831395188 32.0
63.857655753 44.0
63.883916319 43.0
63.910176884 48.0
63.936437449 41.0
63.962698015 41.0
63.988958580 40.0
64.015219146 37.0
64.041479711 33.0
64.067740276 43.0
64.094000842 47.0
64.120261407 35.0
64.146521972 31.0
64.172782538 26.0
64.199043103 29.0
64.225303668 28.0
64.251564234 24.0
64.277824799 29.0
64.304085364 25.0
64.330345930 23.0
64.356606495 43.0
64.382867060 30.0
64.409127626 23.0
64.435388191 30.0
64.461648757 39.0
64.487909322 36.0
64.514169887 22.0
64.540430453 24.0
64.566691018 31.0
64.592951583 26.0
64.619212149 29.0
64.645472714 32.0
64.671733279 23.0
64.697993845 36.0
64.724254410 29.0
64.750514975 50.0
64.776775541 37.0
64.803036106 51.0
64.829296671 46.0
64.855557237 38.0
64.881817802 42.0
64.908078368 53.0
64.934338933 46.0
64.960599498 39.0
64.986860064 44.0
65.013120629 39.0
65.039381194 37.0
65.065641760 36.0
65.091902325 29.0
65.118162890 32.0
65.144423456 25.0
65.170684021 28.0
65.196944586 39.0
65.223205152 28.0
65.249465717 25.0
65.275726283 28.0
65.301986848 28.0
65.328247413 28.0
65.354507979 32.0
65.380768544 30.0
65.407029109 31.0
65.433289675 31.0
65.459550240 33.0
65.485810805 30.0
65.512071371 33.0
65.538331936 24.0
65.564592501 25.0
65.590853067 27.0
65.617113632 26.0
65.643374197 32.0
65.669634763 20.0
65.695895328 26.0
65.722155894 45.0
65.748416459 44.0
65.774677024 37.0
65.800937590 34.0
65.827198155 36.0
65.853458720 35.0
65.879719286 38.0
65.905979851 23.0
65.932240416 32.0
65.958500982 31.0
65.984761547 28.0
66.011022112 29.0
66.037282678 29.0
66.063543243 21.0
66.089803808 17.0
66.116064374 36.0
66.142324939 24.0
66.168585505 26.0
66.194846070 19.0
66.221106635 26.0
66.247367201 22.0
66.273627766 21.0
66.299888331 21.0
66.326148897 20.0
66.352409462 29.0
66.378670027 35.0
66.404930593 28.0
66.431191158 20.0
66.457451723 29.0
66.483712289 26.0
66.509972854 37.0
66.536233419 24.0
66.562493985 30.0
66.588754550 25.0
66.615015116 22.0
66.641275681 23.0
66.667536246 29.0
66.693796812 26.0
66.720057377 24.0
66.746317942 29.0
66.772578508 27.0
66.798839073 26.0
66.825099638 16.0
66.851360204 20.0
66.877620769 31.0
66.903881334 22.0
66.930141900 16.0
66.956402465 28.0
66.982663030 22.0
67.008923596 20.0
67.035184161 22.0
67.061444727 29.0
67.087705292 37.0
67.113965857 20.0
67.140226423 37.0
67.166486988 23.0
67.192747553 29.0
67.219008119 29.0
67.245268684 35.0
67.271529249 35.0
67.297789815 35.0
67.324050380 28.0
67.350310945 27.0
67.376571511 27.0
67.402832076 27.0
67.429092641 30.0
67.455353207 45.0
67.481613772 41.0
67.507874338 30.0
67.534134903 41.0
67.560395468 40.0
67.586656034 34.0
67.612916599 38.0
67.639177164 30.0
67.665437730 30.0
67.691698295 32.0
67.717958860 30.0
67.744219426 35.0
67.770479991 39.0
67.796740556 26.0
67.823001122 35.0
67.849261687 34.0
67.875522252 30.0
67.901782818 31.0
67.928043383 29.0
67.954303949 27.0
67.980564514 36.0
68.006825079 20.0
68.033085645 28.0
68.059346210 22.0
68.085606775 30.0
68.111867341 27.0
68.138127906 21.0
68.164388471 18.0
68.190649037 27.0
68.216909602 29.0
68.243170167 30.0
68.269430733 30.0
68.295691298 27.0
68.321951863 30.0
68.348212429 27.0
68.374472994 32.0
68.400733560 32.0
68.426994125 29.0
68.453254690 31.0
68.479515256 38.0
68.505775821 20.0
68.532036386 33.0
68.558296952 26.0
68.584557517 19.0
68.610818082 24.0
68.637078648 27.0
68.663339213 31.0
68.689599778 29.0
68.715860344 26.0
68.742120909 16.0
68.768381474 24.0
68.794642040 30.0
68.820902605 34.0
68.847163171 20.0
68.873423736 27.0
68.899684301 25.0
68.925944867 28.0
68.952205432 22.0
68.978465997 34.0
69.004726563 21.0
69.030987128 19.0
69.057247693 34.0
69.083508259 35.0
69.109768824 22.0
69.136029389 37.0
69.162289955 18.0
69.188550520 33.0
69.214811086 34.0
69.241071651 27.0
69.267332216 23.0
69.293592782 26.0
69.319853347 29.0
69.346113912 23.0
69.372374478 35.0
69.398635043 26.0
69.424895608 30.0
69.451156174 33.0
69.477416739 28.0
69.503677304 33.0
69.529937870 26.0
69.556198435 28.0
69.582459000 30.0
69.608719566 33.0
69.634980131 27.0
69.661240697 26.0
69.687501262 28.0
69.713761827 29.0
69.740022393 25.0
69.766282958 26.0
69.792543523 28.0
69.818804089 30.0
69.845064654 37.0
69.871325219 26.0
69.897585785 25.0
69.923846350 29.0
69.950106915 36.0
69.976367481 28.0
70.002628046 26.0
70.028888611 23.0
70.055149177 23.0
70.081409742 24.0
70.107670308 24.0
70.133930873 31.0
70.160191438 30.0
70.186452004 27.0
70.212712569 22.0
70.238973134 23.0
70.265233700 23.0
70.291494265 22.0
70.317754830 36.0
70.344015396 22.0
70.370275961 30.0
70.396536526 32.0
70.422797092 37.0
70.449057657 33.0
70.475318222 40.0
70.501578788 25.0
70.527839353 28.0
70.554099919 23.0
70.580360484 22.0
70.606621049 23.0
70.632881615 24.0
70.659142180 22.0
70.685402745 24.0
70.711663311 26.0
70.737923876 22.0
70.764184441 37.0
70.790445007 14.0
70.816705572 28.0
70.842966137 29.0
70.869226703 23.0
70.895487268 21.0
70.921747833 31.0
70.948008399 20.0
70.974268964 20.0
71.000529530 35.0
71.026790095 16.0
71.053050660 31.0
71.079311226 34.0
71.105571791 18.0
71.131832356 25.0
71.158092922 21.0
71.184353487 27.0
71.210614052 28.0
71.236874618 25.0
71.263135183 29.0
71.289395748 27.0
71.315656314 31.0
71.341916879 26.0
71.368177444 23.0
71.394438010 27.0
71.420698575 27.0
71.446959141 33.0
71.473219706 37.0
71.499480271 33.0
71.525740837 38.0
71.552001402 29.0
71.578261967 30.0
71.604522533 21.0
71.630783098 28.0
71.657043663 22.0
71.683304229 29.0
71.709564794 23.0
71.735825359 31.0
71.762085925 24.0
71.788346490 27.0
71.814607055 23.0
71.840867621 35.0
71.867128186 22.0
71.893388752 23.0
71.919649317 18.0
71.945909882 23.0
71.972170448 22.0
71.998431013 18.0
72.024691578 25.0
72.050952144 18.0
72.077212709 33.0
72.103473274 18.0
72.129733840 13.0
72.155994405 20.0
72.182254970 22.0
72.208515536 20.0
72.234776101 26.0
72.261036666 13.0
72.287297232 14.0
72.313557797 21.0
72.339818363 23.0
72.366078928 14.0
72.392339493 19.0
72.418600059 26.0
72.444860624 21.0
72.471121189 28.0
72.497381755 26.0
72.523642320 23.0
72.549902885 29.0
72.576163451 26.0
72.602424016 33.0
72.628684581 35.0
72.654945147 20.0
72.681205712 30.0
72.707466277 21.0
72.733726843 24.0
72.759987408 17.0
72.786247974 26.0
72.812508539 31.0
72.838769104 26.0
72.865029670 24.0
72.891290235 26.0
72.917550800 17.0
72.943811366 31.0
72.970071931 30.0
72.996332496 17.0
73.022593062 30.0
73.048853627 32.0
73.075114192 40.0
73.101374758 33.0
73.127635323 21.0
73.153895889 20.0
73.180156454 22.0
73.206417019 27.0
73.232677585 21.0
73.258938150 25.0
73.285198715 26.0
73.311459281 15.0
73.337719846 30.0
73.363980411 29.0
73.390240977 22.0
73.416501542 29.0
73.442762107 25.0
73.469022673 23.0
73.495283238 22.0
73.521543803 28.0
73.547804369 18.0
73.574064934 23.0
73.600325500 30.0
73.626586065 23.0
73.652846630 23.0
73.679107196 20.0
73.705367761 18.0
73.731628326 19.0
73.757888892 23.0
73.784149457 24.0
73.810410022 21.0
73.836670588 23.0
73.862931153 17.0
73.889191718 26.0
73.915452284 29.0
73.941712849 27.0
73.967973414 29.0
73.994233980 23.0
74.020494545 32.0
74.046755111 30.0
74.073015676 19.0
74.099276241 15.0
74.125536807 17.0
74.151797372 23.0
74.178057937 20.0
74.204318503 18.0
74.230579068 24.0
74.256839633 17.0
74.283100199 29.0
74.309360764 23.0
74.335621329 29.0
74.361881895 18.0
74.388142460 24.0
74.414403025 27.0
74.440663591 15.0
74.466924156 27.0
74.493184722 21.0
74.519445287 22.0
74.545705852 24.0
74.571966418 20.0
74.598226983 21.0
74.624487548 13.0
74.650748114 22.0
74.677008679 24.0
74.703269244 24.0
74.729529810 19.0
74.755790375 33.0
74.782050940 19.0
74.808311506 21.0
74.834572071 30.0
74.860832636 22.0
74.887093202 19.0
74.913353767 24.0
74.939614333 20.0
74.965874898 23.0
74.992135463 28.0
75.018396029 22.0
75.044656594 32.0
75.070917159 28.0
75.097177725 23.0
75.123438290 24.0
75.149698855 25.0
75.175959421 18.0
75.202219986 16.0
75.228480551 31.0
75.254741117 33.0
75.281001682 22.0
75.307262247 19.0
75.333522813 25.0
75.359783378 26.0
75.386043944 18.0
75.412304509 21.0
75.438565074 23.0
75.464825640 15.0
75.491086205 28.0
75.517346770 23.0
75.543607336 28.0
75.569867901 26.0
75.596128466 27.0
75.622389032 17.0
75.648649597 28.0
75.674910162 20.0
75.701170728 21.0
75.727431293 32.0
75.753691858 22.0
75.779952424 28.0
75.806212989 25.0
75.832473555 20.0
75.858734120 35.0
75.884994685 20.0
75.911255251 24.0
75.937515816 22.0
75.963776381 21.0
75.990036947 23.0
76.016297512 28.0
76.042558077 14.0
76.068818643 19.0
76.095079208 19.0
76.121339773 25.0
76.147600339 24.0
76.173860904 25.0
76.200121469 14.0
76.226382035 16.0
76.252642600 14.0
76.278903166 24.0
76.305163731 22.0
76.331424296 30.0
76.357684862 23.0
76.383945427 18.0
76.410205992 18.0
76.436466558 28.0
76.462727123 25.0
76.488987688 24.0
76.515248254 14.0
76.541508819 33.0
76.567769384 27.0
76.594029950 24.0
76.620290515 20.0
76.646551081 23.0
76.672811646 21.0
76.699072211 27.0
76.725332777 28.0
76.751593342 27.0
76.777853907 23.0
76.804114473 22.0
76.830375038 20.0
76.856635603 31.0
76.882896169 26.0
76.909156734 28.0
76.935417299 29.0
76.961677865 28.0
76.987938430 27.0
77.014198995 18.0
77.040459561 10.0
77.066720126 23.0
77.092980692 20.0
77.119241257 25.0
77.145501822 14.0
77.171762388 24.0
77.198022953 24.0
77.224283518 21.0
77.250544084 26.0
77.276804649 21.0
77.303065214 29.0
77.329325780 18.0
77.355586345 19.0
77.381846910 20.0
77.408107476 25.0
77.434368041 23.0
77.460628606 39.0
77.486889172 30.0
77.513149737 27.0
77.539410303 25.0
77.565670868 25.0
77.591931433 28.0
77.618191999 20.0
77.644452564 23.0
77.670713129 26.0
77.696973695 17.0
77.723234260 28.0
77.749494825 16.0
77.775755391 13.0
77.802015956 27.0
77.828276521 25.0
77.854537087 19.0
77.880797652 24.0
77.907058217 26.0
77.933318783 19.0
77.959579348 18.0
77.985839914 29.0
78.012100479 19.0
78.038361044 17.0
78.064621610 27.0
78.090882175 22.0
78.117142740 19.0
78.143403306 17.0
78.169663871 18.0
78.195924436 18.0
78.222185002 22.0
78.248445567 19.0
78.274706132 15.0
78.300966698 28.0
78.327227263 24.0
78.353487828 23.0
78.379748394 20.0
78.406008959 20.0
78.432269525 21.0
78.458530090 21.0
78.484790655 17.0
78.511051221 20.0
78.537311786 29.0
78.563572351 17.0
78.589832917 25.0
78.616093482 23.0
78.642354047 24.0
78.668614613 25.0
78.694875178 24.0
78.721135743 19.0
78.747396309 23.0
78.773656874 23.0
78.799917439 22.0
78.826178005 17.0
78.852438570 25.0
78.878699136 16.0
78.904959701 23.0
78.931220266 19.0
78.957480832 22.0
78.983741397 17.0
79.010001962 33.0
79.036262528 21.0
79.062523093 26.0
79.088783658 26.0
79.115044224 28.0
79.141304789 26.0
79.167565354 20.0
79.193825920 17.0
79.220086485 22.0
79.246347050 14.0
79.272607616 17.0
79.298868181 35.0
79.325128747 26.0
79.351389312 28.0
79.377649877 25.0
79.403910443 30.0
79.430171008 22.0
79.456431573 24.0
79.482692139 24.0
79.508952704 30.0
79.535213269 36.0
79.561473835 25.0
79.587734400 21.0
79.613994965 24.0
79.640255531 18.0
79.666516096 28.0
79.692776661 26.0
79.719037227 20.0
79.745297792 24.0
79.771558358 19.0
79.797818923 30.0
79.824079488 16.0
79.850340054 22.0
79.876600619 25.0
79.902861184 23.0
79.929121750 24.0
79.955382315 19.0
79.981642880 25.0
80.007903446 35.0
80.034164011 24.0
80.060424576 29.0
80.086685142 16.0
80.112945707 29.0
80.139206272 25.0
80.165466838 29.0
80.191727403 33.0
80.217987969 23.0
80.244248534 32.0
80.270509099 27.0
80.296769665 25.0
80.323030230 30.0
80.349290795 33.0
80.375551361 29.0
80.401811926 23.0
80.428072491 15.0
80.454333057 34.0
80.480593622 29.0
80.506854187 26.0
80.533114753 24.0
80.559375318 17.0
80.585635884 34.0
80.611896449 20.0
80.638157014 16.0
80.664417580 24.0
80.690678145 29.0
80.716938710 23.0
80.743199276 27.0
80.769459841 22.0
80.795720406 18.0
80.821980972 20.0
80.848241537 20.0
80.874502102 25.0
80.900762668 23.0
80.927023233 17.0
80.953283798 17.0
80.979544364 23.0
81.005804929 22.0
81.032065495 18.0
81.058326060 18.0
81.084586625 15.0
81.110847191 18.0
81.137107756 16.0
81.163368321 17.0
81.189628887 16.0
81.215889452 11.0
81.242150017 16.0
81.268410583 22.0
81.294671148 35.0
81.320931713 35.0
81.347192279 23.0
81.373452844 20.0
81.399713409 31.0
81.425973975 27.0
81.452234540 29.0
81.478495106 18.0
81.504755671 21.0
81.531016236 28.0
81.557276802 30.0
81.583537367 24.0
81.609797932 26.0
81.636058498 26.0
81.662319063 23.0
81.688579628 28.0
81.714840194 28.0
81.741100759 23.0
81.767361324 21.0
81.793621890 21.0
81.819882455 27.0
81.846143020 24.0
81.872403586 33.0
81.898664151 22.0
81.924924717 31.0
81.951185282 27.0
81.977445847 25.0
82.003706413 23.0
82.029966978 16.0
82.056227543 25.0
82.082488109 29.0
82.108748674 29.0
82.135009239 25.0
82.161269805 21.0
82.187530370 21.0
82.213790935 20.0
82.240051501 15.0
82.266312066 25.0
82.292572631 30.0
82.318833197 21.0
82.345093762 23.0
82.371354328 25.0
82.397614893 25.0
82.423875458 19.0
82.450136024 17.0
82.476396589 29.0
82.502657154 20.0
82.528917720 33.0
82.555178285 28.0
82.581438850 18.0
82.607699416 23.0
82.633959981 21.0
82.660220546 16.0
82.686481112 20.0
82.712741677 20.0
82.739002242 20.0
82.765262808 24.0
82.791523373 30.0
82.817783939 23.0
82.844044504 28.0
82.870305069 31.0
82.896565635 19.0
82.922826200 31.0
82.949086765 23.0
82.975347331 17.0
83.001607896 25.0
83.027868461 21.0
83.054129027 33.0
83.080389592 29.0
83.106650157 16.0
83.132910723 26.0
83.159171288 27.0
83.185431853 24.0
83.211692419 22.0
83.237952984 31.0
83.264213550 34.0
83.290474115 37.0
83.316734680 31.0
83.342995246 30.0
83.369255811 36.0
83.395516376 39.0
83.421776942 46.0
83.448037507 38.0
83.474298072 31.0
83.500558638 36.0
83.526819203 28.0
83.553079768 36.0
83.579340334 33.0
83.605600899 31.0
83.631861464 36.0
83.658122030 27.0
83.684382595 31.0
83.710643161 29.0
83.736903726 37.0
83.763164291 35.0
83.789424857 29.0
83.815685422 34.0
83.841945987 24.0
83.868206553 32.0
83.894467118 45.0
83.920727683 35.0
83.946988249 48.0
83.973248814 36.0
83.999509379 33.0
84.025769945 28.0
84.052030510 26.0
84.078291075 35.0
84.104551641 37.0
84.130812206 34.0
84.157072772 27.0
84.183333337 33.0
84.209593902 25.0
84.235854468 30.0
84.262115033 20.0
84.288375598 20.0
84.314636164 20.0
84.340896729 36.0
84.367157294 19.0
84.393417860 24.0
84.419678425 27.0
84.445938990 32.0
84.472199556 29.0
84.498460121 24.0
84.524720687 26.0
84.550981252 22.0
84.577241817 26.0
84.603502383 31.0
84.629762948 22.0
84.656023513 26.0
84.682284079 20.0
84.708544644 22.0
84.734805209 26.0
84.761065775 30.0
84.787326340 34.0
84.813586905 22.0
84.839847471 26.0
84.866108036 33.0
84.892368601 21.0
84.918629167 31.0
84.944889732 24.0
84.971150298 30.0
84.997410863 33.0
85.023671428 33.0
85.049931994 21.0
85.076192559 31.0
85.102453124 25.0
85.128713690 32.0
85.154974255 24.0
85.181234820 22.0
85.207495386 25.0
85.233755951 27.0
85.260016516 25.0
85.286277082 23.0
85.312537647 25.0
85.338798212 25.0
85.365058778 36.0
85.391319343 30.0
85.417579909 26.0
85.443840474 31.0
85.470101039 44.0
85.496361605 26.0
85.522622170 38.0
85.548882735 31.0
85.575143301 39.0
85.601403866 27.0
85.627664431 35.0
85.653924997 38.0
85.680185562 33.0
85.706446127 35.0
85.732706693 30.0
85.758967258 39.0
85.785227823 27.0
85.811488389 29.0
85.837748954 23.0
85.864009520 27.0
85.890270085 32.0
85.916530650 34.0
85.942791216 18.0
85.969051781 38.0
85.995312346 35.0
86.021572912 20.0
86.047833477 22.0
86.074094042 23.0
86.100354608 27.0
86.126615173 24.0
86.152875738 35.0
86.179136304 18.0
86.205396869 23.0
86.231657434 21.0
86.257918000 26.0
86.284178565 24.0
86.310439131 34.0
86.336699696 34.0
86.362960261 35.0
86.389220827 29.0
86.415481392 33.0
86.441741957 34.0
86.468002523 27.0
86.494263088 36.0
86.520523653 32.0
86.546784219 34.0
86.573044784 31.0
86.599305349 24.0
86.625565915 25.0
86.651826480 35.0
86.678087045 36.0
86.704347611 34.0
86.730608176 25.0
86.756868742 32.0
86.783129307 33.0
86.809389872 29.0
86.835650438 34.0
86.861911003 29.0
86.888171568 31.0
86.914432134 29.0
86.940692699 29.0
86.966953264 31.0
86.993213830 16.0
87.019474395 36.0
87.045734960 17.0
87.071995526 27.0
87.098256091 25.0
87.124516656 23.0
87.150777222 21.0
87.177037787 25.0
87.203298353 19.0
87.229558918 26.0
87.255819483 21.0
87.282080049 22.0
87.308340614 23.0
87.334601179 26.0
87.360861745 20.0
87.387122310 15.0
87.413382875 25.0
87.439643441 13.0
87.465904006 19.0
87.492164571 33.0
87.518425137 19.0
87.544685702 20.0
87.570946267 16.0
87.597206833 26.0
87.623467398 21.0
87.649727964 14.0
87.675988529 23.0
87.702249094 28.0
87.728509660 21.0
87.754770225 23.0
87.781030790 12.0
87.807291356 12.0
87.833551921 17.0
87.859812486 31.0
87.886073052 29.0
87.912333617 17.0
87.938594182 17.0
87.964854748 18.0
87.991115313 19.0
88.017375878 27.0
88.043636444 14.0
88.069897009 24.0
88.096157575 24.0
88.122418140 15.0
88.148678705 23.0
88.174939271 20.0
88.201199836 21.0
88.227460401 24.0
88.253720967 8.0
88.279981532 17.0
88.306242097 21.0
88.332502663 18.0
88.358763228 26.0
88.385023793 20.0
88.411284359 22.0
88.437544924 28.0
88.463805490 20.0
88.490066055 23.0
88.516326620 31.0
88.542587186 34.0
88.568847751 14.0
88.595108316 20.0
88.621368882 22.0
88.647629447 24.0
88.673890012 28.0
88.700150578 15.0
88.726411143 15.0
88.752671708 27.0
88.778932274 21.0
88.805192839 28.0
88.831453404 28.0
88.857713970 16.0
88.883974535 32.0
88.910235101 19.0
88.936495666 35.0
88.962756231 20.0
88.989016797 16.0
89.015277362 24.0
89.041537927 18.0
89.067798493 15.0
89.094059058 31.0
89.120319623 27.0
89.146580189 27.0
89.172840754 28.0
89.199101319 24.0
89.225361885 26.0
89.251622450 21.0
89.277883015 16.0
89.304143581 28.0
89.330404146 27.0
89.356664712 18.0
89.382925277 23.0
89.409185842 27.0
89.435446408 31.0
89.461706973 19.0
89.487967538 20.0
89.514228104 22.0
89.540488669 15.0
89.566749234 22.0
89.593009800 19.0
89.619270365 22.0
89.645530930 31.0
89.671791496 27.0
89.698052061 21.0
89.724312626 15.0
89.750573192 31.0
89.776833757 31.0
89.803094323 30.0
89.829354888 22.0
89.855615453 22.0
89.881876019 28.0
89.908136584 39.0
89.934397149 36.0
89.960657715 29.0
89.986918280 38.0
