$$ -----------------------
$$ Labels defined by JCAMP
$$ -----------------------

## TITLE= Unknown
## JCAMP-DX= 4.24
## DATA TYPE= RD
## BLOCKS= 1
## ORIGIN= PANalytical B.V.
## OWNER= Copyright(C) 2004 by PANalytical B.V.
## DATE= 26/02/17
## TIME= 11:12:36
## SAMPLE DESCRIPTION= 
## SOURCE REFERENCE= Converted XRDML file
##= Configuration=Flat Sample Stage, Owner=pc, Creation date=11/22/2023 7:32:59 PM
Goniometer=Theta/Theta; Minimum step size 2Theta:0.0001; Minimum step size Omega:0.0001
Sample stage=Stage for flat samples/holders
Diffractometer system=EMPYREAN
Measurement program=C:\PANalytical\Data Collector\Programs\Fiber.xrdmp, Created identifier={E8C07BD7-8A8C-42E2-8622-4BC130302805}, Created by=pc, Id=WL:DESKTOP-BC0RBBD:pc, Creation date=1/6/2025 4:49:46 PM, Modified identifier={32F7A4C4-C999-46E4-852F-B36327219E96}, Modified by=pc, Id=WL:DESKTOP-BC0RBBD:pc, Modification date=1/12/2026 4:17:19 PM

$$ ------------------------------------
$$ Labels defined by PANalytical
$$ ------------------------------------

$$ Wavelengths are given in Angstrom.
##$WAVELENGTH ALPHA1= 1.5405980
##$WAVELENGTH ALPHA2= 1.5444260
##$INTENSITY RATIO ALPHA2/ALPHA1= 0.5000000
##$MONOCHROMATOR= NO
##$GENERATOR VOLTAGE= 45
##$TUBE CURRENT= 40
##$ANODE MATERIAL= Cu
##$TUBE FOCUS= LONG FINE
##$SCAN TYPE= CONTINUOUS
##$COUNT TIME= 7.140
##$DIVERGENCE SLIT= 0.71974

$$ -----------------------------------------------------
$$ Labels defined by PANalytical for PC-APD files
$$ -----------------------------------------------------

##$DIFFRACTOMETER= XPERT

$$ ------------------------------------------------------
$$ Labels defined by PANalytical for APD1700 files
$$ ------------------------------------------------------

##$TAKE OFF ANGLE= 7.600
##$DETECTOR TYPE= PIXcel1D-Medipix3 detector
##$SCATTER SLIT= 2.00

$$ -----------------------
$$ Labels defined by JCAMP
$$ -----------------------

## XUNITS= TWO-THETA
## YUNITS= COUNTS
## XFACTOR= 1.0
## YFACTOR= 1.0
## FIRSTX= 6.0056303
## LASTX= 89.9869183
## DELTAX= 0.0262606
## NPOINTS= 3199
## FIRSTY= 317.000
## MINX= 6.00563
## MAXX= 89.98692
## MINY= 11.000
## MAXY= 891.000
## XYDATA= X++<Y..Y>
    6.0056      317.000      299.000      299.000      313.000      334.000
    6.1369      309.000      328.000      298.000      255.000      287.000
    6.2682      296.000      294.000      293.000      295.000      280.000
    6.3995      320.000      310.000      269.000      291.000      275.000
    6.5308      293.000      275.000      289.000      282.000      290.000
    6.6621      262.000      278.000      298.000      293.000      277.000
    6.7934      279.000      280.000      280.000      267.000      240.000
    6.9248      287.000      230.000      277.000      288.000      284.000
    7.0561      233.000      256.000      280.000      253.000      259.000
    7.1874      265.000      220.000      262.000      261.000      264.000
    7.3187      261.000      246.000      252.000      260.000      235.000
    7.4500      258.000      232.000      244.000      238.000      227.000
    7.5813      255.000      259.000      250.000      250.000      242.000
    7.7126      255.000      217.000      238.000      223.000      262.000
    7.8439      257.000      226.000      243.000      220.000      207.000
    7.9752      234.000      238.000      211.000      243.000      222.000
    8.1065      250.000      231.000      228.000      257.000      240.000
    8.2378      242.000      213.000      228.000      258.000      236.000
    8.3691      216.000      228.000      179.000      195.000      237.000
    8.5004      210.000      199.000      211.000      208.000      245.000
    8.6317      216.000      197.000      212.000      235.000      223.000
    8.7630      218.000      167.000      213.000      202.000      215.000
    8.8943      203.000      202.000      203.000      224.000      190.000
    9.0256      208.000      223.000      222.000      223.000      201.000
    9.1569      215.000      230.000      223.000      228.000      198.000
    9.2882      206.000      211.000      200.000      187.000      217.000
    9.4195      203.000      184.000      181.000      201.000      184.000
    9.5508      196.000      175.000      187.000      208.000      179.000
    9.6821      199.000      191.000      199.000      194.000      170.000
    9.8134      171.000      206.000      195.000      211.000      182.000
    9.9447      215.000      207.000      206.000      181.000      174.000
   10.0760      200.000      204.000      168.000      189.000      190.000
   10.2073      179.000      189.000      171.000      188.000      173.000
   10.3386      200.000      189.000      162.000      183.000      177.000
   10.4699      207.000      174.000      174.000      183.000      184.000
   10.6012      178.000      205.000      190.000      169.000      153.000
   10.7325      177.000      176.000      187.000      186.000      197.000
   10.8638      190.000      178.000      172.000      175.000      174.000
   10.9951      178.000      165.000      173.000      166.000      181.000
   11.1264      156.000      170.000      205.000      183.000      200.000
   11.2577      168.000      169.000      180.000      163.000      157.000
   11.3890      142.000      161.000      154.000      169.000      150.000
   11.5203      193.000      190.000      148.000      168.000      176.000
   11.6517      174.000      219.000      179.000      193.000      189.000
   11.7830      172.000      167.000      165.000      157.000      168.000
   11.9143      171.000      174.000      151.000      174.000      161.000
   12.0456      164.000      180.000      186.000      161.000      158.000
   12.1769      162.000      177.000      172.000      150.000      149.000
   12.3082      163.000      169.000      169.000      154.000      153.000
   12.4395      168.000      154.000      152.000      147.000      142.000
   12.5708      158.000      155.000      158.000      143.000      158.000
   12.7021      137.000      131.000      158.000      172.000      149.000
   12.8334      148.000      153.000      141.000      145.000      142.000
   12.9647      123.000      152.000      142.000      150.000      131.000
   13.0960      132.000      150.000      136.000      147.000      141.000
   13.2273      133.000      154.000      141.000      133.000      129.000
   13.3586      140.000      154.000      143.000      169.000      153.000
   13.4899      119.000      143.000      133.000      136.000      129.000
   13.6212      148.000      124.000      153.000      140.000      122.000
   13.7525      105.000      110.000      146.000      140.000      143.000
   13.8838      129.000      161.000      133.000      149.000      126.000
   14.0151      124.000      142.000      138.000      143.000      151.000
   14.1464      134.000      122.000      149.000      126.000      137.000
   14.2777      115.000      121.000      134.000      125.000      137.000
   14.4090      136.000      145.000      126.000      110.000      130.000
   14.5403      123.000      128.000       98.000      129.000      157.000
   14.6716      120.000      123.000      126.000      126.000      133.000
   14.8029      151.000      137.000      155.000      132.000      148.000
   14.9342      140.000      129.000      146.000      128.000      123.000
   15.0655      110.000      133.000      134.000      139.000      128.000
   15.1968      138.000      127.000      122.000      120.000      108.000
   15.3281      109.000      112.000      130.000      124.000      110.000
   15.4594      116.000      110.000      113.000      120.000      103.000
   15.5907      126.000      113.000      134.000      109.000      109.000
   15.7220      121.000      119.000      129.000      126.000      124.000
   15.8533      117.000      120.000      129.000      101.000      112.000
   15.9846      110.000      118.000      127.000      122.000      108.000
   16.1159       96.000       92.000      125.000      125.000      124.000
   16.2473      108.000      114.000      106.000      119.000      123.000
   16.3786      110.000      113.000      112.000      114.000       90.000
   16.5099      105.000      136.000      123.000      100.000      110.000
   16.6412      118.000      117.000      106.000      125.000      112.000
   16.7725      105.000      104.000      102.000      100.000      118.000
   16.9038      114.000       95.000      111.000       96.000      112.000
   17.0351      108.000      101.000      102.000      107.000       93.000
   17.1664      106.000      101.000       91.000       99.000       94.000
   17.2977      109.000       98.000       97.000      124.000      118.000
   17.4290       97.000      114.000       88.000      105.000       83.000
   17.5603      100.000       93.000       92.000       97.000      104.000
   17.6916      109.000      105.000      109.000      114.000      114.000
   17.8229       89.000       96.000       99.000      104.000      112.000
   17.9542      111.000      118.000      102.000       94.000      101.000
   18.0855       97.000      100.000      110.000       92.000      119.000
   18.2168      104.000       82.000       91.000       87.000       79.000
   18.3481       85.000      116.000       78.000      110.000       84.000
   18.4794       97.000       83.000       88.000      101.000      107.000
   18.6107       98.000       89.000       92.000       92.000       83.000
   18.7420      103.000       78.000       92.000       99.000      100.000
   18.8733       82.000       77.000      115.000       81.000       79.000
   19.0046       92.000      112.000       99.000       79.000       87.000
   19.1359       97.000       89.000       83.000      104.000      100.000
   19.2672       72.000       77.000       84.000       87.000       84.000
   19.3985       90.000       86.000       82.000       91.000       91.000
   19.5298       82.000       89.000       74.000       82.000       80.000
   19.6611       77.000       81.000       77.000       97.000       73.000
   19.7924       85.000       75.000       79.000       66.000       66.000
   19.9237       96.000       82.000       94.000      104.000       79.000
   20.0550       88.000       92.000       66.000       66.000       85.000
   20.1863       86.000      102.000       71.000       84.000       80.000
   20.3176       93.000       89.000       93.000       69.000       87.000
   20.4489       91.000       73.000       74.000       88.000       74.000
   20.5802       78.000       95.000       77.000       85.000       86.000
   20.7115       89.000       88.000       85.000      107.000       99.000
   20.8428       94.000      107.000       67.000       94.000       83.000
   20.9742       94.000       77.000       76.000       93.000      100.000
   21.1055       80.000       83.000       77.000       80.000       79.000
   21.2368       81.000       70.000      101.000       87.000       65.000
   21.3681       78.000       59.000       71.000       81.000       77.000
   21.4994       77.000       81.000       74.000       61.000       68.000
   21.6307       73.000       85.000       82.000       78.000       71.000
   21.7620       71.000       60.000       76.000       89.000       74.000
   21.8933       66.000       76.000       85.000       76.000       63.000
   22.0246       85.000       75.000       66.000       60.000       75.000
   22.1559       77.000       62.000       62.000       71.000       65.000
   22.2872       61.000       58.000       70.000       72.000       76.000
   22.4185       82.000       64.000       58.000       75.000       71.000
   22.5498       72.000       61.000       62.000       72.000       68.000
   22.6811       68.000       79.000       57.000       72.000       69.000
   22.8124       57.000       82.000       78.000       82.000       75.000
   22.9437       78.000      120.000      107.000       94.000      124.000
   23.0750      121.000      127.000      130.000      100.000      108.000
   23.2063       88.000      100.000       93.000       89.000       79.000
   23.3376       68.000       80.000       72.000       92.000       87.000
   23.4689       93.000       63.000       78.000       56.000       76.000
   23.6002       71.000       66.000       72.000       68.000       62.000
   23.7315       75.000       81.000       57.000       75.000       72.000
   23.8628       72.000       61.000       78.000       81.000       64.000
   23.9941       61.000       65.000       62.000       69.000       55.000
   24.1254       58.000       65.000       62.000       46.000       66.000
   24.2567       67.000       63.000       65.000       72.000       80.000
   24.3880       95.000       74.000       73.000       83.000       73.000
   24.5193       72.000       73.000       70.000       74.000       65.000
   24.6506       58.000       63.000       55.000       65.000       69.000
   24.7819       55.000       55.000       69.000       72.000       60.000
   24.9132       64.000       64.000       72.000       47.000       46.000
   25.0445       62.000       67.000       68.000       66.000       60.000
   25.1758       65.000       76.000       75.000       58.000       75.000
   25.3071       65.000       64.000       63.000       88.000       56.000
   25.4384       74.000       64.000       64.000       65.000       56.000
   25.5698       62.000       78.000       65.000       54.000       68.000
   25.7011       71.000       80.000       77.000       77.000       85.000
   25.8324       84.000       73.000       66.000       83.000       77.000
   25.9637       73.000       60.000       79.000       67.000       76.000
   26.0950       65.000       66.000       52.000       62.000       69.000
   26.2263       54.000       67.000       96.000       78.000       74.000
   26.3576       82.000       71.000       75.000       61.000       66.000
   26.4889       77.000       83.000       71.000       70.000       92.000
   26.6202      100.000       86.000       86.000      104.000       94.000
   26.7515       83.000       85.000       58.000       53.000       59.000
   26.8828       63.000       52.000       65.000       51.000       61.000
   27.0141       44.000       57.000       47.000       66.000       40.000
   27.1454       58.000       60.000       58.000       68.000       63.000
   27.2767       59.000       60.000       64.000       69.000       55.000
   27.4080       76.000       66.000       67.000       80.000       56.000
   27.5393       62.000       68.000       53.000       62.000       73.000
   27.6706       65.000       64.000       53.000       58.000       61.000
   27.8019       66.000       69.000       65.000       59.000       69.000
   27.9332       82.000       64.000       60.000       72.000       74.000
   28.0645       74.000       67.000       63.000       74.000       77.000
   28.1958       59.000       53.000       58.000       65.000       71.000
   28.3271       52.000       61.000       57.000       65.000       79.000
   28.4584       55.000       61.000       81.000       59.000       61.000
   28.5897       61.000       79.000       73.000       66.000       64.000
   28.7210       72.000       74.000       59.000       65.000       78.000
   28.8523       76.000       61.000       77.000       58.000       66.000
   28.9836       68.000       75.000       73.000       74.000       56.000
   29.1149       99.000       98.000      116.000      113.000      113.000
   29.2462      126.000      146.000      185.000      222.000      270.000
   29.3775      372.000      445.000      590.000      758.000      891.000
   29.5088      846.000      736.000      650.000      491.000      335.000
   29.6401      281.000      173.000      127.000       95.000      107.000
   29.7714       84.000      108.000      104.000       83.000       76.000
   29.9027      103.000       86.000       87.000       72.000       82.000
   30.0340       81.000       89.000      110.000      105.000      152.000
   30.1654      139.000      120.000      115.000      118.000       76.000
   30.2967       85.000       60.000       61.000       65.000       61.000
   30.4280       65.000       72.000       67.000       52.000       58.000
   30.5593       57.000       59.000       49.000       67.000       56.000
   30.6906       60.000       52.000       52.000       68.000       58.000
   30.8219       58.000       67.000       66.000       70.000       59.000
   30.9532       81.000       85.000       84.000       91.000       53.000
   31.0845       66.000       96.000       76.000       92.000       69.000
   31.2158       66.000       83.000       70.000       53.000       53.000
   31.3471       77.000       70.000       80.000       83.000       69.000
   31.4784       78.000       67.000       78.000       92.000       86.000
   31.6097       59.000       66.000       72.000       77.000       82.000
   31.7410       88.000       72.000       87.000       93.000       84.000
   31.8723       98.000       92.000       93.000       79.000       79.000
   32.0036       97.000      108.000      117.000      135.000      148.000
   32.1349      158.000      189.000      236.000      262.000      358.000
   32.2662      459.000      648.000      734.000      493.000      424.000
   32.3975      411.000      314.000      174.000      177.000      212.000
   32.5288      207.000      290.000      326.000      348.000      341.000
   32.6601      330.000      426.000      398.000      338.000      287.000
   32.7914      255.000      169.000      174.000      128.000       86.000
   32.9227      103.000      106.000      119.000      106.000       98.000
   33.0540      104.000      111.000      120.000      127.000      116.000
   33.1853      117.000      102.000      129.000      129.000      135.000
   33.3166      114.000      126.000      100.000      124.000      122.000
   33.4479      104.000      104.000       92.000      106.000       97.000
   33.5792      108.000       88.000       98.000      101.000      110.000
   33.7105       93.000       82.000      112.000      121.000      111.000
   33.8418      123.000      109.000      137.000      154.000      157.000
   33.9731      141.000      135.000      104.000      125.000      103.000
   34.1044      107.000      100.000       83.000       82.000      106.000
   34.2357       73.000      103.000      129.000      154.000      173.000
   34.3670      208.000      315.000      397.000      400.000      443.000
   34.4983      345.000      308.000      232.000      163.000      152.000
   34.6296       95.000       77.000       78.000       70.000       62.000
   34.7609       78.000       51.000       68.000       58.000       60.000
   34.8923       56.000       71.000       54.000       44.000       38.000
   35.0236       53.000       41.000       46.000       64.000       50.000
   35.1549       35.000       57.000       57.000       49.000       62.000
   35.2862       58.000       72.000       54.000       68.000       49.000
   35.4175       60.000       42.000       51.000       41.000       61.000
   35.5488       49.000       49.000       42.000       48.000       46.000
   35.6801       37.000       43.000       44.000       35.000       50.000
   35.8114       64.000       54.000       52.000       68.000       63.000
   35.9427       83.000       82.000       85.000      121.000      129.000
   36.0740      111.000       86.000       74.000      100.000       65.000
   36.2053       65.000       62.000       55.000       51.000       60.000
   36.3366       46.000       45.000       51.000       51.000       54.000
   36.4679       47.000       67.000       48.000       50.000       57.000
   36.5992       47.000       52.000       60.000       64.000       63.000
   36.7305       77.000       95.000       89.000       92.000       98.000
   36.8618       72.000       60.000       65.000       72.000       47.000
   36.9931       50.000       53.000       45.000       57.000       49.000
   37.1244       44.000       55.000       48.000       37.000       46.000
   37.2557       54.000       36.000       42.000       46.000       51.000
   37.3870       58.000       58.000       51.000       34.000       52.000
   37.5183       46.000       30.000       34.000       29.000       47.000
   37.6496       37.000       37.000       44.000       50.000       42.000
   37.7809       51.000       35.000       27.000       44.000       33.000
   37.9122       62.000       43.000       44.000       40.000       29.000
   38.0435       43.000       39.000       45.000       30.000       38.000
   38.1748       43.000       42.000       42.000       32.000       43.000
   38.3061       35.000       37.000       30.000       37.000       37.000
   38.4374       34.000       31.000       39.000       35.000       44.000
   38.5687       39.000       48.000       47.000       38.000       59.000
   38.7000       44.000       65.000       73.000       78.000       88.000
   38.8313      102.000      122.000      106.000      105.000      105.000
   38.9626       92.000       75.000       95.000       64.000       64.000
   39.0939       55.000       58.000       45.000       54.000       69.000
   39.2252       58.000       71.000       75.000       65.000       82.000
   39.3565       84.000      113.000      107.000      118.000      117.000
   39.4879      146.000      131.000      138.000      103.000       97.000
   39.6192       91.000       68.000       79.000       46.000       62.000
   39.7505       48.000       54.000       52.000       34.000       55.000
   39.8818       38.000       35.000       43.000       40.000       49.000
   40.0131       47.000       38.000       45.000       41.000       40.000
   40.1444       48.000       47.000       42.000       39.000       42.000
   40.2757       41.000       48.000       46.000       38.000       33.000
   40.4070       51.000       31.000       44.000       58.000       38.000
   40.5383       47.000       54.000       36.000       34.000       51.000
   40.6696       35.000       33.000       43.000       54.000       44.000
   40.8009       45.000       35.000       72.000       61.000       54.000
   40.9322       57.000       71.000       55.000       67.000       61.000
   41.0635       51.000       71.000       75.000       68.000       81.000
   41.1948       78.000       87.000      104.000      135.000      178.000
   41.3261      159.000      193.000      278.000      267.000      231.000
   41.4574      193.000      162.000      144.000      144.000       97.000
   41.5887       83.000       86.000       86.000       95.000       87.000
   41.7200       97.000       92.000       91.000       86.000       87.000
   41.8513       66.000       50.000       48.000       54.000       54.000
   41.9826       47.000       51.000       46.000       48.000       51.000
   42.1139       58.000       40.000       43.000       36.000       38.000
   42.2452       45.000       43.000       44.000       37.000       42.000
   42.3765       41.000       41.000       50.000       47.000       55.000
   42.5078       51.000       46.000       40.000       33.000       49.000
   42.6391       52.000       34.000       44.000       41.000       41.000
   42.7704       50.000       48.000       36.000       57.000       54.000
   42.9017       66.000       65.000       68.000       70.000       62.000
   43.0330       67.000       83.000       73.000       69.000       86.000
   43.1643      104.000      118.000      131.000      118.000      119.000
   43.2956      110.000       91.000      108.000       79.000       57.000
   43.4269       62.000       58.000       58.000       41.000       58.000
   43.5582       42.000       54.000       46.000       48.000       49.000
   43.6895       47.000       58.000       39.000       52.000       40.000
   43.8208       59.000       60.000       37.000       48.000       48.000
   43.9521       61.000       51.000       55.000       54.000       50.000
   44.0835       53.000       65.000       50.000       57.000       59.000
   44.2148       51.000       57.000       66.000       46.000       59.000
   44.3461       41.000       51.000       52.000       38.000       52.000
   44.4774       43.000       43.000       41.000       47.000       36.000
   44.6087       44.000       45.000       46.000       62.000       43.000
   44.7400       37.000       41.000       41.000       34.000       35.000
   44.8713       38.000       33.000       45.000       50.000       37.000
   45.0026       30.000       29.000       35.000       36.000       36.000
   45.1339       34.000       40.000       44.000       42.000       34.000
   45.2652       38.000       46.000       37.000       26.000       34.000
   45.3965       37.000       43.000       27.000       33.000       38.000
   45.5278       39.000       22.000       28.000       43.000       50.000
   45.6591       41.000       50.000       41.000       47.000       61.000
   45.7904       46.000       68.000       67.000       74.000       80.000
   45.9217       70.000       73.000       69.000       52.000       64.000
   46.0530       39.000       50.000       34.000       49.000       44.000
   46.1843       36.000       34.000       37.000       37.000       44.000
   46.3156       50.000       38.000       48.000       39.000       43.000
   46.4469       44.000       34.000       37.000       40.000       33.000
   46.5782       38.000       56.000       54.000       35.000       42.000
   46.7095       35.000       43.000       56.000       43.000       55.000
   46.8408       49.000       49.000       66.000       77.000       63.000
   46.9721      103.000       92.000       90.000      104.000       98.000
   47.1034      103.000       87.000      109.000       88.000       91.000
   47.2347       89.000       85.000       80.000       92.000       79.000
   47.3660      107.000      108.000       92.000      106.000      105.000
   47.4973       99.000      131.000      140.000      140.000      119.000
   47.6286      126.000      136.000      112.000      110.000      110.000
   47.7599      101.000       87.000       83.000       84.000       56.000
   47.8912       47.000       56.000       40.000       49.000       49.000
   48.0225       48.000       35.000       52.000       55.000       45.000
   48.1538       36.000       42.000       50.000       29.000       55.000
   48.2851       45.000       39.000       52.000       44.000       46.000
   48.4164       58.000       56.000       79.000       67.000       84.000
   48.5477       93.000      101.000       96.000       73.000      103.000
   48.6790       83.000       82.000       74.000       64.000       77.000
   48.8104       43.000       42.000       53.000       63.000       34.000
   48.9417       42.000       37.000       23.000       51.000       50.000
   49.0730       52.000       36.000       51.000       41.000       57.000
   49.2043       47.000       44.000       49.000       54.000       45.000
   49.3356       42.000       45.000       30.000       58.000       42.000
   49.4669       40.000       44.000       43.000       42.000       45.000
   49.5982       37.000       39.000       52.000       52.000       46.000
   49.7295       53.000       43.000       44.000       44.000       54.000
   49.8608       66.000       58.000       59.000       57.000       60.000
   49.9921       56.000       77.000       59.000       68.000       61.000
   50.1234       49.000       58.000       49.000       55.000       52.000
   50.2547       54.000       48.000       43.000       45.000       37.000
   50.3860       35.000       34.000       32.000       54.000       40.000
   50.5173       40.000       43.000       36.000       44.000       32.000
   50.6486       40.000       52.000       45.000       49.000       46.000
   50.7799       41.000       39.000       28.000       43.000       48.000
   50.9112       50.000       37.000       39.000       37.000       35.000
   51.0425       41.000       33.000       34.000       40.000       52.000
   51.1738       44.000       34.000       48.000       40.000       40.000
   51.3051       32.000       25.000       33.000       39.000       30.000
   51.4364       25.000       30.000       37.000       31.000       26.000
   51.5677       34.000       44.000       40.000       61.000       63.000
   51.6990       82.000      118.000      104.000      179.000      210.000
   51.8303      229.000      166.000      159.000      162.000      169.000
   51.9616      142.000      145.000      131.000      118.000       90.000
   52.0929       78.000       73.000       63.000       60.000       46.000
   52.2242       36.000       33.000       28.000       28.000       30.000
   52.3555       26.000       40.000       35.000       33.000       33.000
   52.4868       31.000       32.000       34.000       31.000       28.000
   52.6181       24.000       31.000       24.000       23.000       25.000
   52.7494       28.000       37.000       36.000       32.000       23.000
   52.8807       29.000       35.000       36.000       33.000       40.000
   53.0120       36.000       38.000       33.000       29.000       32.000
   53.1433       40.000       37.000       54.000       39.000       22.000
   53.2746       35.000       22.000       38.000       37.000       38.000
   53.4060       23.000       38.000       30.000       33.000       38.000
   53.5373       35.000       36.000       34.000       28.000       36.000
   53.6686       37.000       19.000       32.000       41.000       34.000
   53.7999       22.000       41.000       22.000       20.000       33.000
   53.9312       35.000       37.000       24.000       44.000       38.000
   54.0625       51.000       38.000       43.000       49.000       33.000
   54.1938       49.000       56.000       40.000       32.000       39.000
   54.3251       48.000       27.000       40.000       23.000       26.000
   54.4564       32.000       31.000       38.000       38.000       21.000
   54.5877       22.000       39.000       29.000       35.000       31.000
   54.7190       31.000       31.000       31.000       28.000       36.000
   54.8503       29.000       23.000       29.000       34.000       21.000
   54.9816       31.000       19.000       31.000       27.000       40.000
   55.1129       32.000       35.000       38.000       36.000       26.000
   55.2442       33.000       35.000       31.000       36.000       35.000
   55.3755       27.000       29.000       26.000       29.000       21.000
   55.5068       23.000       38.000       23.000       38.000       22.000
   55.6381       30.000       21.000       24.000       35.000       30.000
   55.7694       31.000       29.000       19.000       36.000       34.000
   55.9007       33.000       29.000       39.000       38.000       38.000
   56.0320       39.000       35.000       36.000       40.000       52.000
   56.1633       36.000       46.000       40.000       35.000       46.000
   56.2946       48.000       44.000       51.000       51.000       57.000
   56.4259       63.000       68.000       73.000       78.000       91.000
   56.5572       98.000       90.000      103.000      132.000      118.000
   56.6885      104.000       77.000       81.000       88.000       68.000
   56.8198       68.000       58.000       48.000       39.000       36.000
   56.9511       37.000       38.000       27.000       30.000       45.000
   57.0824       29.000       38.000       27.000       33.000       37.000
   57.2137       30.000       28.000       45.000       55.000       38.000
   57.3450       44.000       47.000       53.000       57.000       64.000
   57.4763       73.000       74.000       63.000       71.000       60.000
   57.6076       59.000       47.000       57.000       40.000       36.000
   57.7389       36.000       34.000       36.000       29.000       43.000
   57.8702       42.000       41.000       42.000       40.000       45.000
   58.0015       40.000       24.000       35.000       53.000       38.000
   58.1329       32.000       36.000       34.000       37.000       50.000
   58.2642       42.000       39.000       51.000       28.000       40.000
   58.3955       36.000       48.000       32.000       30.000       35.000
   58.5268       37.000       30.000       51.000       44.000       39.000
   58.6581       32.000       38.000       42.000       51.000       41.000
   58.7894       52.000       35.000       52.000       30.000       36.000
   58.9207       38.000       28.000       34.000       46.000       37.000
   59.0520       40.000       44.000       36.000       34.000       38.000
   59.1833       27.000       34.000       40.000       32.000       27.000
   59.3146       30.000       38.000       40.000       41.000       53.000
   59.4459       38.000       47.000       42.000       62.000       43.000
   59.5772       41.000       30.000       37.000       45.000       39.000
   59.7085       33.000       37.000       42.000       24.000       38.000
   59.8398       33.000       50.000       49.000       35.000       42.000
   59.9711       78.000       78.000       93.000      101.000       93.000
   60.1024       89.000       82.000       90.000       78.000       79.000
   60.2337       59.000       65.000       64.000       53.000       51.000
   60.3650       31.000       37.000       42.000       45.000       42.000
   60.4963       51.000       48.000       37.000       57.000       38.000
   60.6276       60.000       53.000       66.000       59.000       62.000
   60.7589       82.000       65.000       85.000       64.000       63.000
   60.8902       49.000       71.000       56.000       34.000       49.000
   61.0215       47.000       38.000       45.000       42.000       48.000
   61.1528       46.000       33.000       54.000       46.000       37.000
   61.2841       53.000       43.000       43.000       35.000       36.000
   61.4154       26.000       39.000       33.000       50.000       33.000
   61.5467       39.000       45.000       35.000       39.000       30.000
   61.6780       37.000       32.000       38.000       31.000       41.000
   61.8093       26.000       38.000       32.000       43.000       38.000
   61.9406       33.000       35.000       31.000       41.000       35.000
   62.0719       41.000       57.000       45.000       34.000       48.000
   62.2032       57.000       79.000       75.000       88.000      114.000
   62.3345      143.000      113.000      127.000      139.000      120.000
   62.4658      131.000      116.000      115.000      107.000       99.000
   62.5971       96.000       98.000       98.000       87.000       75.000
   62.7285       58.000       64.000       61.000       47.000       47.000
   62.8598       43.000       40.000       35.000       45.000       33.000
   62.9911       41.000       43.000       33.000       38.000       38.000
   63.1224       45.000       44.000       50.000       37.000       36.000
   63.2537       43.000       31.000       26.000       40.000       28.000
   63.3850       25.000       21.000       31.000       35.000       35.000
   63.5163       32.000       31.000       30.000       41.000       31.000
   63.6476       26.000       40.000       42.000       47.000       46.000
   63.7789       64.000       48.000       58.000       49.000       46.000
   63.9102       48.000       40.000       53.000       46.000       54.000
   64.0415       41.000       46.000       37.000       34.000       25.000
   64.1728       33.000       34.000       37.000       42.000       24.000
   64.3041       30.000       31.000       36.000       44.000       29.000
   64.4354       28.000       27.000       29.000       43.000       33.000
   64.5667       47.000       31.000       38.000       37.000       33.000
   64.6980       40.000       40.000       47.000       43.000       46.000
   64.8293       41.000       40.000       37.000       44.000       36.000
   64.9606       39.000       49.000       39.000       30.000       32.000
   65.0919       31.000       23.000       30.000       30.000       32.000
   65.2232       30.000       34.000       32.000       40.000       32.000
   65.3545       27.000       41.000       44.000       31.000       30.000
   65.4858       40.000       35.000       38.000       47.000       24.000
   65.6171       35.000       46.000       50.000       31.000       36.000
   65.7484       35.000       45.000       38.000       42.000       40.000
   65.8797       43.000       36.000       45.000       28.000       31.000
   66.0110       34.000       28.000       30.000       42.000       25.000
   66.1423       25.000       34.000       36.000       23.000       19.000
   66.2736       29.000       35.000       28.000       30.000       27.000
   66.4049       22.000       26.000       32.000       23.000       30.000
   66.5362       29.000       36.000       37.000       26.000       36.000
   66.6675       20.000       33.000       36.000       28.000       18.000
   66.7988       34.000       26.000       24.000       21.000       27.000
   66.9301       17.000       19.000       32.000       27.000       19.000
   67.0614       31.000       20.000       28.000       34.000       26.000
   67.1927       27.000       26.000       18.000       27.000       32.000
   67.3241       33.000       42.000       40.000       34.000       38.000
   67.4554       39.000       46.000       39.000       47.000       49.000
   67.5867       39.000       31.000       38.000       35.000       33.000
   67.7180       37.000       30.000       29.000       25.000       26.000
   67.8493       25.000       26.000       24.000       25.000       38.000
   67.9806       27.000       20.000       30.000       31.000       40.000
   68.1119       26.000       32.000       29.000       28.000       42.000
   68.2432       33.000       29.000       25.000       31.000       39.000
   68.3745       30.000       38.000       32.000       35.000       42.000
   68.5058       39.000       38.000       35.000       33.000       31.000
   68.6371       30.000       38.000       27.000       33.000       28.000
   68.7684       22.000       33.000       25.000       31.000       29.000
   68.8997       27.000       32.000       26.000       24.000       20.000
   69.0310       26.000       25.000       25.000       20.000       39.000
   69.1623       27.000       33.000       27.000       32.000       32.000
   69.2936       28.000       22.000       21.000       28.000       21.000
   69.4249       32.000       27.000       24.000       29.000       28.000
   69.5562       23.000       36.000       30.000       41.000       32.000
   69.6875       24.000       30.000       26.000       28.000       32.000
   69.8188       25.000       37.000       31.000       31.000       30.000
   69.9501       39.000       25.000       32.000       29.000       28.000
   70.0814       27.000       34.000       32.000       24.000       30.000
   70.2127       28.000       24.000       26.000       24.000       25.000
   70.3440       25.000       33.000       44.000       35.000       24.000
   70.4753       32.000       23.000       37.000       29.000       41.000
   70.6066       37.000       27.000       23.000       23.000       21.000
   70.7379       24.000       30.000       17.000       29.000       25.000
   70.8692       38.000       27.000       29.000       27.000       32.000
   71.0005       28.000       29.000       33.000       40.000       28.000
   71.1318       25.000       30.000       29.000       35.000       27.000
   71.2631       34.000       39.000       31.000       32.000       30.000
   71.3944       26.000       35.000       37.000       22.000       32.000
   71.5257       21.000       33.000       31.000       34.000       27.000
   71.6570       27.000       31.000       24.000       26.000       36.000
   71.7883       29.000       25.000       23.000       20.000       25.000
   71.9196       33.000       30.000       31.000       29.000       16.000
   72.0510       26.000       25.000       32.000       26.000       28.000
   72.1823       30.000       24.000       28.000       24.000       20.000
   72.3136       29.000       23.000       33.000       24.000       29.000
   72.4449       22.000       31.000       22.000       40.000       36.000
   72.5762       23.000       30.000       20.000       32.000       25.000
   72.7075       25.000       30.000       26.000       22.000       26.000
   72.8388       21.000       21.000       33.000       31.000       34.000
   72.9701       27.000       35.000       28.000       31.000       30.000
   73.1014       28.000       31.000       26.000       30.000       24.000
   73.2327       22.000       23.000       19.000       24.000       29.000
   73.3640       23.000       32.000       24.000       31.000       26.000
   73.4953       19.000       28.000       29.000       23.000       33.000
   73.6266       27.000       24.000       19.000       23.000       40.000
   73.7579       32.000       31.000       30.000       17.000       23.000
   73.8892       18.000       22.000       21.000       16.000       17.000
   74.0205       28.000       29.000       20.000       29.000       24.000
   74.1518       30.000       28.000       25.000       20.000       28.000
   74.2831       19.000       23.000       24.000       27.000       24.000
   74.4144       18.000       22.000       26.000       22.000       21.000
   74.5457       28.000       27.000       21.000       22.000       27.000
   74.6770       26.000       27.000       18.000       28.000       19.000
   74.8083       24.000       23.000       21.000       35.000       28.000
   74.9396       25.000       18.000       27.000       17.000       26.000
   75.0709       21.000       28.000       28.000       33.000       36.000
   75.2022       27.000       20.000       16.000       22.000       28.000
   75.3335       26.000       26.000       21.000       19.000       17.000
   75.4648       17.000       26.000       21.000       25.000       19.000
   75.5961       25.000       18.000       23.000       20.000       31.000
   75.7274       27.000       25.000       28.000       17.000       17.000
   75.8587       18.000       26.000       23.000       24.000       26.000
   75.9900       26.000       25.000       23.000       29.000       19.000
   76.1213       33.000       19.000       21.000       22.000       32.000
   76.2526       26.000       24.000       22.000       28.000       21.000
   76.3839       35.000       22.000       33.000       28.000       31.000
   76.5152       25.000       28.000       25.000       28.000       25.000
   76.6466       20.000       21.000       31.000       24.000       27.000
   76.7779       20.000       28.000       24.000       24.000       23.000
   76.9092       29.000       26.000       29.000       22.000       22.000
   77.0405       26.000       32.000       29.000       21.000       22.000
   77.1718       23.000       38.000       24.000       23.000       18.000
   77.3031       28.000       25.000       27.000       26.000       20.000
   77.4344       23.000       22.000       24.000       26.000       24.000
   77.5657       25.000       27.000       17.000       31.000       24.000
   77.6970       20.000       27.000       21.000       19.000       22.000
   77.8283       21.000       30.000       20.000       16.000       25.000
   77.9596       24.000       21.000       25.000       20.000       22.000
   78.0909       19.000       27.000       23.000       19.000       37.000
   78.2222       22.000       25.000       25.000       28.000       27.000
   78.3535       26.000       25.000       27.000       28.000       18.000
   78.4848       19.000       21.000       19.000       32.000       19.000
   78.6161       31.000       30.000       30.000       24.000       44.000
   78.7474       32.000       18.000       21.000       22.000       25.000
   78.8787       16.000       20.000       39.000       16.000       26.000
   79.0100       14.000       26.000       19.000       25.000       28.000
   79.1413       29.000       26.000       19.000       43.000       23.000
   79.2726       21.000       36.000       30.000       28.000       31.000
   79.4039       28.000       36.000       27.000       27.000       31.000
   79.5352       28.000       33.000       26.000       25.000       29.000
   79.6665       28.000       23.000       31.000       29.000       23.000
   79.7978       29.000       34.000       24.000       25.000       25.000
   79.9291       31.000       35.000       24.000       30.000       30.000
   80.0604       16.000       35.000       21.000       36.000       32.000
   80.1917       29.000       30.000       28.000       36.000       42.000
   80.3230       27.000       36.000       30.000       34.000       38.000
   80.4543       24.000       27.000       35.000       25.000       28.000
   80.5856       28.000       21.000       18.000       17.000       17.000
   80.7169       27.000       17.000       23.000       26.000       27.000
   80.8482       20.000       26.000       28.000       25.000       26.000
   80.9795       18.000       22.000       28.000       27.000       29.000
   81.1108       17.000       21.000       41.000       34.000       24.000
   81.2422       24.000       34.000       36.000       31.000       23.000
   81.3735       25.000       30.000       23.000       21.000       34.000
   81.5048       33.000       22.000       32.000       32.000       30.000
   81.6361       38.000       29.000       26.000       36.000       34.000
   81.7674       26.000       25.000       29.000       22.000       32.000
   81.8987       28.000       32.000       35.000       26.000       27.000
   82.0300       32.000       28.000       27.000       20.000       32.000
   82.1613       31.000       34.000       33.000       24.000       23.000
   82.2926       18.000       34.000       26.000       25.000       18.000
   82.4239       19.000       22.000       30.000       23.000       28.000
   82.5552       29.000       29.000       19.000       16.000       25.000
   82.6865       36.000       20.000       23.000       32.000       23.000
   82.8178       25.000       21.000       31.000       39.000       25.000
   82.9491       20.000       36.000       30.000       30.000       21.000
   83.0804       24.000       31.000       26.000       24.000       30.000
   83.2117       28.000       32.000       34.000       28.000       23.000
   83.3430       52.000       43.000       25.000       33.000       30.000
   83.4743       30.000       37.000       31.000       30.000       39.000
   83.6056       32.000       28.000       26.000       37.000       33.000
   83.7369       33.000       42.000       37.000       45.000       52.000
   83.8682       41.000       54.000       39.000       34.000       36.000
   83.9995       39.000       39.000       36.000       53.000       41.000
   84.1308       19.000       38.000       52.000       34.000       28.000
   84.2621       34.000       31.000       31.000       25.000       27.000
   84.3934       33.000       20.000       35.000       27.000       29.000
   84.5247       35.000       30.000       28.000       29.000       30.000
   84.6560       24.000       28.000       28.000       35.000       32.000
   84.7873       25.000       30.000       38.000       21.000       42.000
   84.9186       31.000       35.000       26.000       37.000       30.000
   85.0499       41.000       26.000       21.000       37.000       25.000
   85.1812       34.000       24.000       25.000       30.000       32.000
   85.3125       46.000       38.000       33.000       42.000       35.000
   85.4438       40.000       31.000       41.000       33.000       43.000
   85.5751       22.000       37.000       44.000       31.000       37.000
   85.7064       35.000       28.000       33.000       35.000       29.000
   85.8377       27.000       42.000       32.000       23.000       29.000
   85.9691       23.000       35.000       32.000       27.000       24.000
   86.1004       29.000       35.000       25.000       24.000       28.000
   86.2317       22.000       33.000       38.000       33.000       28.000
   86.3630       29.000       41.000       25.000       21.000       28.000
   86.4943       26.000       45.000       30.000       34.000       31.000
   86.6256       36.000       40.000       30.000       30.000       29.000
   86.7569       35.000       28.000       28.000       23.000       27.000
   86.8882       26.000       34.000       25.000       22.000       28.000
   87.0195       23.000       29.000       19.000       31.000       17.000
   87.1508       22.000       16.000       22.000       22.000       20.000
   87.2821       25.000       22.000       15.000       22.000       29.000
   87.4134       22.000       13.000       27.000       28.000       37.000
   87.5447       26.000       28.000       36.000       30.000       31.000
   87.6760       22.000       16.000       32.000       21.000       21.000
   87.8073       29.000       32.000       24.000       27.000       20.000
   87.9386       19.000       23.000       22.000       33.000       22.000
   88.0699       24.000       21.000       26.000       19.000       28.000
   88.2012       22.000       14.000       19.000       29.000       24.000
   88.3325       21.000       23.000       21.000       22.000       32.000
   88.4638       20.000       31.000       20.000       25.000       28.000
   88.5951       31.000       23.000       25.000       26.000       34.000
   88.7264       16.000       35.000       19.000       20.000       22.000
   88.8577       11.000       28.000       23.000       30.000       21.000
   88.9890       28.000       28.000       34.000       22.000       22.000
   89.1203       33.000       22.000       25.000       28.000       22.000
   89.2516       25.000       26.000       19.000       23.000       24.000
   89.3829       22.000       24.000       26.000       20.000       30.000
   89.5142       21.000       28.000       32.000       28.000       31.000
   89.6455       21.000       32.000       35.000       32.000       20.000
   89.7768       24.000       31.000       41.000       41.000       29.000
   89.9081       35.000       41.000       35.000       49.000
## END= 
