6.005630280 317.0
6.031890845 299.0
6.058151411 299.0
6.084411976 313.0
6.110672541 334.0
6.136933107 309.0
6.163193672 328.0
6.189454237 298.0
6.215714803 255.0
6.241975368 287.0
6.268235934 296.0
6.294496499 294.0
6.320757064 293.0
6.347017630 295.0
6.373278195 280.0
6.399538760 320.0
6.425799326 310.0
6.452059891 269.0
6.478320456 291.0
6.504581022 275.0
6.530841587 293.0
6.557102152 275.0
6.583362718 289.0
6.609623283 282.0
6.635883848 290.0
6.662144414 262.0
6.688404979 278.0
6.714665545 298.0
6.740926110 293.0
6.767186675 277.0
6.793447241 279.0
6.819707806 280.0
6.845968371 280.0
6.872228937 267.0
6.898489502 240.0
6.924750067 287.0
6.951010633 230.0
6.977271198 277.0
7.003531763 288.0
7.029792329 284.0
7.056052894 233.0
7.082313459 256.0
7.108574025 280.0
7.134834590 253.0
7.161095156 259.0
7.187355721 265.0
7.213616286 220.0
7.239876852 262.0
7.266137417 261.0
7.292397982 264.0
7.318658548 261.0
7.344919113 246.0
7.371179678 252.0
7.397440244 260.0
7.423700809 235.0
7.449961374 258.0
7.476221940 232.0
7.502482505 244.0
7.528743070 238.0
7.555003636 227.0
7.581264201 255.0
7.607524767 259.0
7.633785332 250.0
7.660045897 250.0
7.686306463 242.0
7.712567028 255.0
7.738827593 217.0
7.765088159 238.0
7.791348724 223.0
7.817609289 262.0
7.843869855 257.0
7.870130420 226.0
7.896390985 243.0
7.922651551 220.0
7.948912116 207.0
7.975172682 234.0
8.001433247 238.0
8.027693812 211.0
8.053954378 243.0
8.080214943 222.0
8.106475508 250.0
8.132736074 231.0
8.158996639 228.0
8.185257204 257.0
8.211517770 240.0
8.237778335 242.0
8.264038900 213.0
8.290299466 228.0
8.316560031 258.0
8.342820596 236.0
8.369081162 216.0
8.395341727 228.0
8.421602293 179.0
8.447862858 195.0
8.474123423 237.0
8.500383989 210.0
8.526644554 199.0
8.552905119 211.0
8.579165685 208.0
8.605426250 245.0
8.631686815 216.0
8.657947381 197.0
8.684207946 212.0
8.710468511 235.0
8.736729077 223.0
8.762989642 218.0
8.789250207 167.0
8.815510773 213.0
8.841771338 202.0
8.868031904 215.0
8.894292469 203.0
8.920553034 202.0
8.946813600 203.0
8.973074165 224.0
8.999334730 190.0
9.025595296 208.0
9.051855861 223.0
9.078116426 222.0
9.104376992 223.0
9.130637557 201.0
9.156898122 215.0
9.183158688 230.0
9.209419253 223.0
9.235679818 228.0
9.261940384 198.0
9.288200949 206.0
9.314461515 211.0
9.340722080 200.0
9.366982645 187.0
9.393243211 217.0
9.419503776 203.0
9.445764341 184.0
9.472024907 181.0
9.498285472 201.0
9.524546037 184.0
9.550806603 196.0
9.577067168 175.0
9.603327733 187.0
9.629588299 208.0
9.655848864 179.0
9.682109429 199.0
9.708369995 191.0
9.734630560 199.0
9.760891126 194.0
9.787151691 170.0
9.813412256 171.0
9.839672822 206.0
9.865933387 195.0
9.892193952 211.0
9.918454518 182.0
9.944715083 215.0
9.970975648 207.0
9.997236214 206.0
10.023496779 181.0
10.049757344 174.0
10.076017910 200.0
10.102278475 204.0
10.128539040 168.0
10.154799606 189.0
10.181060171 190.0
10.207320737 179.0
10.233581302 189.0
10.259841867 171.0
10.286102433 188.0
10.312362998 173.0
10.338623563 200.0
10.364884129 189.0
10.391144694 162.0
10.417405259 183.0
10.443665825 177.0
10.469926390 207.0
10.496186955 174.0
10.522447521 174.0
10.548708086 183.0
10.574968651 184.0
10.601229217 178.0
10.627489782 205.0
10.653750348 190.0
10.680010913 169.0
10.706271478 153.0
10.732532044 177.0
10.758792609 176.0
10.785053174 187.0
10.811313740 186.0
10.837574305 197.0
10.863834870 190.0
10.890095436 178.0
10.916356001 172.0
10.942616566 175.0
10.968877132 174.0
10.995137697 178.0
11.021398262 165.0
11.047658828 173.0
11.073919393 166.0
11.100179959 181.0
11.126440524 156.0
11.152701089 170.0
11.178961655 205.0
11.205222220 183.0
11.231482785 200.0
11.257743351 168.0
11.284003916 169.0
11.310264481 180.0
11.336525047 163.0
11.362785612 157.0
11.389046177 142.0
11.415306743 161.0
11.441567308 154.0
11.467827873 169.0
11.494088439 150.0
11.520349004 193.0
11.546609570 190.0
11.572870135 148.0
11.599130700 168.0
11.625391266 176.0
11.651651831 174.0
11.677912396 219.0
11.704172962 179.0
11.730433527 193.0
11.756694092 189.0
11.782954658 172.0
11.809215223 167.0
11.835475788 165.0
11.861736354 157.0
11.887996919 168.0
11.914257485 171.0
11.940518050 174.0
11.966778615 151.0
11.993039181 174.0
12.019299746 161.0
12.045560311 164.0
12.071820877 180.0
12.098081442 186.0
12.124342007 161.0
12.150602573 158.0
12.176863138 162.0
12.203123703 177.0
12.229384269 172.0
12.255644834 150.0
12.281905399 149.0
12.308165965 163.0
12.334426530 169.0
12.360687096 169.0
12.386947661 154.0
12.413208226 153.0
12.439468792 168.0
12.465729357 154.0
12.491989922 152.0
12.518250488 147.0
12.544511053 142.0
12.570771618 158.0
12.597032184 155.0
12.623292749 158.0
12.649553314 143.0
12.675813880 158.0
12.702074445 137.0
12.728335010 131.0
12.754595576 158.0
12.780856141 172.0
12.807116707 149.0
12.833377272 148.0
12.859637837 153.0
12.885898403 141.0
12.912158968 145.0
12.938419533 142.0
12.964680099 123.0
12.990940664 152.0
13.017201229 142.0
13.043461795 150.0
13.069722360 131.0
13.095982925 132.0
13.122243491 150.0
13.148504056 136.0
13.174764621 147.0
13.201025187 141.0
13.227285752 133.0
13.253546318 154.0
13.279806883 141.0
13.306067448 133.0
13.332328014 129.0
13.358588579 140.0
13.384849144 154.0
13.411109710 143.0
13.437370275 169.0
13.463630840 153.0
13.489891406 119.0
13.516151971 143.0
13.542412536 133.0
13.568673102 136.0
13.594933667 129.0
13.621194232 148.0
13.647454798 124.0
13.673715363 153.0
13.699975929 140.0
13.726236494 122.0
13.752497059 105.0
13.778757625 110.0
13.805018190 146.0
13.831278755 140.0
13.857539321 143.0
13.883799886 129.0
13.910060451 161.0
13.936321017 133.0
13.962581582 149.0
13.988842147 126.0
14.015102713 124.0
14.041363278 142.0
14.067623843 138.0
14.093884409 143.0
14.120144974 151.0
14.146405540 134.0
14.172666105 122.0
14.198926670 149.0
14.225187236 126.0
14.251447801 137.0
14.277708366 115.0
14.303968932 121.0
14.330229497 134.0
14.356490062 125.0
14.382750628 137.0
14.409011193 136.0
14.435271758 145.0
14.461532324 126.0
14.487792889 110.0
14.514053454 130.0
14.540314020 123.0
14.566574585 128.0
14.592835151 98.0
14.619095716 129.0
14.645356281 157.0
14.671616847 120.0
14.697877412 123.0
14.724137977 126.0
14.750398543 126.0
14.776659108 133.0
14.802919673 151.0
14.829180239 137.0
14.855440804 155.0
14.881701369 132.0
14.907961935 148.0
14.934222500 140.0
14.960483065 129.0
14.986743631 146.0
15.013004196 128.0
15.039264762 123.0
15.065525327 110.0
15.091785892 133.0
15.118046458 134.0
15.144307023 139.0
15.170567588 128.0
15.196828154 138.0
15.223088719 127.0
15.249349284 122.0
15.275609850 120.0
15.301870415 108.0
15.328130980 109.0
15.354391546 112.0
15.380652111 130.0
15.406912676 124.0
15.433173242 110.0
15.459433807 116.0
15.485694373 110.0
15.511954938 113.0
15.538215503 120.0
15.564476069 103.0
15.590736634 126.0
15.616997199 113.0
15.643257765 134.0
15.669518330 109.0
15.695778895 109.0
15.722039461 121.0
15.748300026 119.0
15.774560591 129.0
15.800821157 126.0
15.827081722 124.0
15.853342288 117.0
15.879602853 120.0
15.905863418 129.0
15.932123984 101.0
15.958384549 112.0
15.984645114 110.0
16.010905680 118.0
16.037166245 127.0
16.063426810 122.0
16.089687376 108.0
16.115947941 96.0
16.142208506 92.0
16.168469072 125.0
16.194729637 125.0
16.220990202 124.0
16.247250768 108.0
16.273511333 114.0
16.299771899 106.0
16.326032464 119.0
16.352293029 123.0
16.378553595 110.0
16.404814160 113.0
16.431074725 112.0
16.457335291 114.0
16.483595856 90.0
16.509856421 105.0
16.536116987 136.0
16.562377552 123.0
16.588638117 100.0
16.614898683 110.0
16.641159248 118.0
16.667419813 117.0
16.693680379 106.0
16.719940944 125.0
16.746201510 112.0
16.772462075 105.0
16.798722640 104.0
16.824983206 102.0
16.851243771 100.0
16.877504336 118.0
16.903764902 114.0
16.930025467 95.0
16.956286032 111.0
16.982546598 96.0
17.008807163 112.0
17.035067728 108.0
17.061328294 101.0
17.087588859 102.0
17.113849424 107.0
17.140109990 93.0
17.166370555 106.0
17.192631121 101.0
17.218891686 91.0
17.245152251 99.0
17.271412817 94.0
17.297673382 109.0
17.323933947 98.0
17.350194513 97.0
17.376455078 124.0
17.402715643 118.0
17.428976209 97.0
17.455236774 114.0
17.481497339 88.0
17.507757905 105.0
17.534018470 83.0
17.560279035 100.0
17.586539601 93.0
17.612800166 92.0
17.639060732 97.0
17.665321297 104.0
17.691581862 109.0
17.717842428 105.0
17.744102993 109.0
17.770363558 114.0
17.796624124 114.0
17.822884689 89.0
17.849145254 96.0
17.875405820 99.0
17.901666385 104.0
17.927926950 112.0
17.954187516 111.0
17.980448081 118.0
18.006708646 102.0
18.032969212 94.0
18.059229777 101.0
18.085490343 97.0
18.111750908 100.0
18.138011473 110.0
18.164272039 92.0
18.190532604 119.0
18.216793169 104.0
18.243053735 82.0
18.269314300 91.0
18.295574865 87.0
18.321835431 79.0
18.348095996 85.0
18.374356561 116.0
18.400617127 78.0
18.426877692 110.0
18.453138257 84.0
18.479398823 97.0
18.505659388 83.0
18.531919954 88.0
18.558180519 101.0
18.584441084 107.0
18.610701650 98.0
18.636962215 89.0
18.663222780 92.0
18.689483346 92.0
18.715743911 83.0
18.742004476 103.0
18.768265042 78.0
18.794525607 92.0
18.820786172 99.0
18.847046738 100.0
18.873307303 82.0
18.899567868 77.0
18.925828434 115.0
18.952088999 81.0
18.978349565 79.0
19.004610130 92.0
19.030870695 112.0
19.057131261 99.0
19.083391826 79.0
19.109652391 87.0
19.135912957 97.0
19.162173522 89.0
19.188434087 83.0
19.214694653 104.0
19.240955218 100.0
19.267215783 72.0
19.293476349 77.0
19.319736914 84.0
19.345997479 87.0
19.372258045 84.0
19.398518610 90.0
19.424779176 86.0
19.451039741 82.0
19.477300306 91.0
19.503560872 91.0
19.529821437 82.0
19.556082002 89.0
19.582342568 74.0
19.608603133 82.0
19.634863698 80.0
19.661124264 77.0
19.687384829 81.0
19.713645394 77.0
19.739905960 97.0
19.766166525 73.0
19.792427091 85.0
19.818687656 75.0
19.844948221 79.0
19.871208787 66.0
19.897469352 66.0
19.923729917 96.0
19.949990483 82.0
19.976251048 94.0
20.002511613 104.0
20.028772179 79.0
20.055032744 88.0
20.081293309 92.0
20.107553875 66.0
20.133814440 66.0
20.160075005 85.0
20.186335571 86.0
20.212596136 102.0
20.238856702 71.0
20.265117267 84.0
20.291377832 80.0
20.317638398 93.0
20.343898963 89.0
20.370159528 93.0
20.396420094 69.0
20.422680659 87.0
20.448941224 91.0
20.475201790 73.0
20.501462355 74.0
20.527722920 88.0
20.553983486 74.0
20.580244051 78.0
20.606504616 95.0
20.632765182 77.0
20.659025747 85.0
20.685286313 86.0
20.711546878 89.0
20.737807443 88.0
20.764068009 85.0
20.790328574 107.0
20.816589139 99.0
20.842849705 94.0
20.869110270 107.0
20.895370835 67.0
20.921631401 94.0
20.947891966 83.0
20.974152531 94.0
21.000413097 77.0
21.026673662 76.0
21.052934227 93.0
21.079194793 100.0
21.105455358 80.0
21.131715924 83.0
21.157976489 77.0
21.184237054 80.0
21.210497620 79.0
21.236758185 81.0
21.263018750 70.0
21.289279316 101.0
21.315539881 87.0
21.341800446 65.0
21.368061012 78.0
21.394321577 59.0
21.420582142 71.0
21.446842708 81.0
21.473103273 77.0
21.499363838 77.0
21.525624404 81.0
21.551884969 74.0
21.578145535 61.0
21.604406100 68.0
21.630666665 73.0
21.656927231 85.0
21.683187796 82.0
21.709448361 78.0
21.735708927 71.0
21.761969492 71.0
21.788230057 60.0
21.814490623 76.0
21.840751188 89.0
21.867011753 74.0
21.893272319 66.0
21.919532884 76.0
21.945793449 85.0
21.972054015 76.0
21.998314580 63.0
22.024575146 85.0
22.050835711 75.0
22.077096276 66.0
22.103356842 60.0
22.129617407 75.0
22.155877972 77.0
22.182138538 62.0
22.208399103 62.0
22.234659668 71.0
22.260920234 65.0
22.287180799 61.0
22.313441364 58.0
22.339701930 70.0
22.365962495 72.0
22.392223060 76.0
22.418483626 82.0
22.444744191 64.0
22.471004757 58.0
22.497265322 75.0
22.523525887 71.0
22.549786453 72.0
22.576047018 61.0
22.602307583 62.0
22.628568149 72.0
22.654828714 68.0
22.681089279 68.0
22.707349845 79.0
22.733610410 57.0
22.759870975 72.0
22.786131541 69.0
22.812392106 57.0
22.838652671 82.0
22.864913237 78.0
22.891173802 82.0
22.917434368 75.0
22.943694933 78.0
22.969955498 120.0
22.996216064 107.0
23.022476629 94.0
23.048737194 124.0
23.074997760 121.0
23.101258325 127.0
23.127518890 130.0
23.153779456 100.0
23.180040021 108.0
23.206300586 88.0
23.232561152 100.0
23.258821717 93.0
23.285082283 89.0
23.311342848 79.0
23.337603413 68.0
23.363863979 80.0
23.390124544 72.0
23.416385109 92.0
23.442645675 87.0
23.468906240 93.0
23.495166805 63.0
23.521427371 78.0
23.547687936 56.0
23.573948501 76.0
23.600209067 71.0
23.626469632 66.0
23.652730197 72.0
23.678990763 68.0
23.705251328 62.0
23.731511894 75.0
23.757772459 81.0
23.784033024 57.0
23.810293590 75.0
23.836554155 72.0
23.862814720 72.0
23.889075286 61.0
23.915335851 78.0
23.941596416 81.0
23.967856982 64.0
23.994117547 61.0
24.020378112 65.0
24.046638678 62.0
24.072899243 69.0
24.099159808 55.0
24.125420374 58.0
24.151680939 65.0
24.177941505 62.0
24.204202070 46.0
24.230462635 66.0
24.256723201 67.0
24.282983766 63.0
24.309244331 65.0
24.335504897 72.0
24.361765462 80.0
24.388026027 95.0
24.414286593 74.0
24.440547158 73.0
24.466807723 83.0
24.493068289 73.0
24.519328854 72.0
24.545589419 73.0
24.571849985 70.0
24.598110550 74.0
24.624371116 65.0
24.650631681 58.0
24.676892246 63.0
24.703152812 55.0
24.729413377 65.0
24.755673942 69.0
24.781934508 55.0
24.808195073 55.0
24.834455638 69.0
24.860716204 72.0
24.886976769 60.0
24.913237334 64.0
24.939497900 64.0
24.965758465 72.0
24.992019030 47.0
25.018279596 46.0
25.044540161 62.0
25.070800727 67.0
25.097061292 68.0
25.123321857 66.0
25.149582423 60.0
25.175842988 65.0
25.202103553 76.0
25.228364119 75.0
25.254624684 58.0
25.280885249 75.0
25.307145815 65.0
25.333406380 64.0
25.359666945 63.0
25.385927511 88.0
25.412188076 56.0
25.438448641 74.0
25.464709207 64.0
25.490969772 64.0
25.517230338 65.0
25.543490903 56.0
25.569751468 62.0
25.596012034 78.0
25.622272599 65.0
25.648533164 54.0
25.674793730 68.0
25.701054295 71.0
25.727314860 80.0
25.753575426 77.0
25.779835991 77.0
25.806096556 85.0
25.832357122 84.0
25.858617687 73.0
25.884878252 66.0
25.911138818 83.0
25.937399383 77.0
25.963659949 73.0
25.989920514 60.0
26.016181079 79.0
26.042441645 67.0
26.068702210 76.0
26.094962775 65.0
26.121223341 66.0
26.147483906 52.0
26.173744471 62.0
26.200005037 69.0
26.226265602 54.0
26.252526167 67.0
26.278786733 96.0
26.305047298 78.0
26.331307863 74.0
26.357568429 82.0
26.383828994 71.0
26.410089560 75.0
26.436350125 61.0
26.462610690 66.0
26.488871256 77.0
26.515131821 83.0
26.541392386 71.0
26.567652952 70.0
26.593913517 92.0
26.620174082 100.0
26.646434648 86.0
26.672695213 86.0
26.698955778 104.0
26.725216344 94.0
26.751476909 83.0
26.777737474 85.0
26.803998040 58.0
26.830258605 53.0
26.856519171 59.0
26.882779736 63.0
26.909040301 52.0
26.935300867 65.0
26.961561432 51.0
26.987821997 61.0
27.014082563 44.0
27.040343128 57.0
27.066603693 47.0
27.092864259 66.0
27.119124824 40.0
27.145385389 58.0
27.171645955 60.0
27.197906520 58.0
27.224167086 68.0
27.250427651 63.0
27.276688216 59.0
27.302948782 60.0
27.329209347 64.0
27.355469912 69.0
27.381730478 55.0
27.407991043 76.0
27.434251608 66.0
27.460512174 67.0
27.486772739 80.0
27.513033304 56.0
27.539293870 62.0
27.565554435 68.0
27.591815000 53.0
27.618075566 62.0
27.644336131 73.0
27.670596697 65.0
27.696857262 64.0
27.723117827 53.0
27.749378393 58.0
27.775638958 61.0
27.801899523 66.0
27.828160089 69.0
27.854420654 65.0
27.880681219 59.0
27.906941785 69.0
27.933202350 82.0
27.959462915 64.0
27.985723481 60.0
28.011984046 72.0
28.038244611 74.0
28.064505177 74.0
28.090765742 67.0
28.117026308 63.0
28.143286873 74.0
28.169547438 77.0
28.195808004 59.0
28.222068569 53.0
28.248329134 58.0
28.274589700 65.0
28.300850265 71.0
28.327110830 52.0
28.353371396 61.0
28.379631961 57.0
28.405892526 65.0
28.432153092 79.0
28.458413657 55.0
28.484674222 61.0
28.510934788 81.0
28.537195353 59.0
28.563455919 61.0
28.589716484 61.0
28.615977049 79.0
28.642237615 73.0
28.668498180 66.0
28.694758745 64.0
28.721019311 72.0
28.747279876 74.0
28.773540441 59.0
28.799801007 65.0
28.826061572 78.0
28.852322137 76.0
28.878582703 61.0
28.904843268 77.0
28.931103833 58.0
28.957364399 66.0
28.983624964 68.0
29.009885530 75.0
29.036146095 73.0
29.062406660 74.0
29.088667226 56.0
29.114927791 99.0
29.141188356 98.0
29.167448922 116.0
29.193709487 113.0
29.219970052 113.0
29.246230618 126.0
29.272491183 146.0
29.298751748 185.0
29.325012314 222.0
29.351272879 270.0
29.377533444 372.0
29.403794010 445.0
29.430054575 590.0
29.456315141 758.0
29.482575706 891.0
29.508836271 846.0
29.535096837 736.0
29.561357402 650.0
29.587617967 491.0
29.613878533 335.0
29.640139098 281.0
29.666399663 173.0
29.692660229 127.0
29.718920794 95.0
29.745181359 107.0
29.771441925 84.0
29.797702490 108.0
29.823963055 104.0
29.850223621 83.0
29.876484186 76.0
29.902744752 103.0
29.929005317 86.0
29.955265882 87.0
29.981526448 72.0
30.007787013 82.0
30.034047578 81.0
30.060308144 89.0
30.086568709 110.0
30.112829274 105.0
30.139089840 152.0
30.165350405 139.0
30.191610970 120.0
30.217871536 115.0
30.244132101 118.0
30.270392666 76.0
30.296653232 85.0
30.322913797 60.0
30.349174363 61.0
30.375434928 65.0
30.401695493 61.0
30.427956059 65.0
30.454216624 72.0
30.480477189 67.0
30.506737755 52.0
30.532998320 58.0
30.559258885 57.0
30.585519451 59.0
30.611780016 49.0
30.638040581 67.0
30.664301147 56.0
30.690561712 60.0
30.716822277 52.0
30.743082843 52.0
30.769343408 68.0
30.795603974 58.0
30.821864539 58.0
30.848125104 67.0
30.874385670 66.0
30.900646235 70.0
30.926906800 59.0
30.953167366 81.0
30.979427931 85.0
31.005688496 84.0
31.031949062 91.0
31.058209627 53.0
31.084470192 66.0
31.110730758 96.0
31.136991323 76.0
31.163251889 92.0
31.189512454 69.0
31.215773019 66.0
31.242033585 83.0
31.268294150 70.0
31.294554715 53.0
31.320815281 53.0
31.347075846 77.0
31.373336411 70.0
31.399596977 80.0
31.425857542 83.0
31.452118107 69.0
31.478378673 78.0
31.504639238 67.0
31.530899803 78.0
31.557160369 92.0
31.583420934 86.0
31.609681500 59.0
31.635942065 66.0
31.662202630 72.0
31.688463196 77.0
31.714723761 82.0
31.740984326 88.0
31.767244892 72.0
31.793505457 87.0
31.819766022 93.0
31.846026588 84.0
31.872287153 98.0
31.898547718 92.0
31.924808284 93.0
31.951068849 79.0
31.977329414 79.0
32.003589980 97.0
32.029850545 108.0
32.056111111 117.0
32.082371676 135.0
32.108632241 148.0
32.134892807 158.0
32.161153372 189.0
32.187413937 236.0
32.213674503 262.0
32.239935068 358.0
32.266195633 459.0
32.292456199 648.0
32.318716764 734.0
32.344977329 493.0
32.371237895 424.0
32.397498460 411.0
32.423759025 314.0
32.450019591 174.0
32.476280156 177.0
32.502540722 212.0
32.528801287 207.0
32.555061852 290.0
32.581322418 326.0
32.607582983 348.0
32.633843548 341.0
32.660104114 330.0
32.686364679 426.0
32.712625244 398.0
32.738885810 338.0
32.765146375 287.0
32.791406940 255.0
32.817667506 169.0
32.843928071 174.0
32.870188636 128.0
32.896449202 86.0
32.922709767 103.0
32.948970333 106.0
32.975230898 119.0
33.001491463 106.0
33.027752029 98.0
33.054012594 104.0
33.080273159 111.0
33.106533725 120.0
33.132794290 127.0
33.159054855 116.0
33.185315421 117.0
33.211575986 102.0
33.237836551 129.0
33.264097117 129.0
33.290357682 135.0
33.316618247 114.0
33.342878813 126.0
33.369139378 100.0
33.395399944 124.0
33.421660509 122.0
33.447921074 104.0
33.474181640 104.0
33.500442205 92.0
33.526702770 106.0
33.552963336 97.0
33.579223901 108.0
33.605484466 88.0
33.631745032 98.0
33.658005597 101.0
33.684266162 110.0
33.710526728 93.0
33.736787293 82.0
33.763047858 112.0
33.789308424 121.0
33.815568989 111.0
33.841829555 123.0
33.868090120 109.0
33.894350685 137.0
33.920611251 154.0
33.946871816 157.0
33.973132381 141.0
33.999392947 135.0
34.025653512 104.0
34.051914077 125.0
34.078174643 103.0
34.104435208 107.0
34.130695773 100.0
34.156956339 83.0
34.183216904 82.0
34.209477469 106.0
34.235738035 73.0
34.261998600 103.0
34.288259166 129.0
34.314519731 154.0
34.340780296 173.0
34.367040862 208.0
34.393301427 315.0
34.419561992 397.0
34.445822558 400.0
34.472083123 443.0
34.498343688 345.0
34.524604254 308.0
34.550864819 232.0
34.577125384 163.0
34.603385950 152.0
34.629646515 95.0
34.655907081 77.0
34.682167646 78.0
34.708428211 70.0
34.734688777 62.0
34.760949342 78.0
34.787209907 51.0
34.813470473 68.0
34.839731038 58.0
34.865991603 60.0
34.892252169 56.0
34.918512734 71.0
34.944773299 54.0
34.971033865 44.0
34.997294430 38.0
35.023554995 53.0
35.049815561 41.0
35.076076126 46.0
35.102336692 64.0
35.128597257 50.0
35.154857822 35.0
35.181118388 57.0
35.207378953 57.0
35.233639518 49.0
35.259900084 62.0
35.286160649 58.0
35.312421214 72.0
35.338681780 54.0
35.364942345 68.0
35.391202910 49.0
35.417463476 60.0
35.443724041 42.0
35.469984606 51.0
35.496245172 41.0
35.522505737 61.0
35.548766303 49.0
35.575026868 49.0
35.601287433 42.0
35.627547999 48.0
35.653808564 46.0
35.680069129 37.0
35.706329695 43.0
35.732590260 44.0
35.758850825 35.0
35.785111391 50.0
35.811371956 64.0
35.837632521 54.0
35.863893087 52.0
35.890153652 68.0
35.916414217 63.0
35.942674783 83.0
35.968935348 82.0
35.995195914 85.0
36.021456479 121.0
36.047717044 129.0
36.073977610 111.0
36.100238175 86.0
36.126498740 74.0
36.152759306 100.0
36.179019871 65.0
36.205280436 65.0
36.231541002 62.0
36.257801567 55.0
36.284062132 51.0
36.310322698 60.0
36.336583263 46.0
36.362843828 45.0
36.389104394 51.0
36.415364959 51.0
36.441625525 54.0
36.467886090 47.0
36.494146655 67.0
36.520407221 48.0
36.546667786 50.0
36.572928351 57.0
36.599188917 47.0
36.625449482 52.0
36.651710047 60.0
36.677970613 64.0
36.704231178 63.0
36.730491743 77.0
36.756752309 95.0
36.783012874 89.0
36.809273439 92.0
36.835534005 98.0
36.861794570 72.0
36.888055136 60.0
36.914315701 65.0
36.940576266 72.0
36.966836832 47.0
36.993097397 50.0
37.019357962 53.0
37.045618528 45.0
37.071879093 57.0
37.098139658 49.0
37.124400224 44.0
37.150660789 55.0
37.176921354 48.0
37.203181920 37.0
37.229442485 46.0
37.255703050 54.0
37.281963616 36.0
37.308224181 42.0
37.334484747 46.0
37.360745312 51.0
37.387005877 58.0
37.413266443 58.0
37.439527008 51.0
37.465787573 34.0
37.492048139 52.0
37.518308704 46.0
37.544569269 30.0
37.570829835 34.0
37.597090400 29.0
37.623350965 47.0
37.649611531 37.0
37.675872096 37.0
37.702132661 44.0
37.728393227 50.0
37.754653792 42.0
37.780914358 51.0
37.807174923 35.0
37.833435488 27.0
37.859696054 44.0
37.885956619 33.0
37.912217184 62.0
37.938477750 43.0
37.964738315 44.0
37.990998880 40.0
38.017259446 29.0
38.043520011 43.0
38.069780576 39.0
38.096041142 45.0
38.122301707 30.0
38.148562272 38.0
38.174822838 43.0
38.201083403 42.0
38.227343969 42.0
38.253604534 32.0
38.279865099 43.0
38.306125665 35.0
38.332386230 37.0
38.358646795 30.0
38.384907361 37.0
38.411167926 37.0
38.437428491 34.0
38.463689057 31.0
38.489949622 39.0
38.516210187 35.0
38.542470753 44.0
38.568731318 39.0
38.594991884 48.0
38.621252449 47.0
38.647513014 38.0
38.673773580 59.0
38.700034145 44.0
38.726294710 65.0
38.752555276 73.0
38.778815841 78.0
38.805076406 88.0
38.831336972 102.0
38.857597537 122.0
38.883858102 106.0
38.910118668 105.0
38.936379233 105.0
38.962639798 92.0
38.988900364 75.0
39.015160929 95.0
39.041421495 64.0
39.067682060 64.0
39.093942625 55.0
39.120203191 58.0
39.146463756 45.0
39.172724321 54.0
39.198984887 69.0
39.225245452 58.0
39.251506017 71.0
39.277766583 75.0
39.304027148 65.0
39.330287713 82.0
39.356548279 84.0
39.382808844 113.0
39.409069409 107.0
39.435329975 118.0
39.461590540 117.0
39.487851106 146.0
39.514111671 131.0
39.540372236 138.0
39.566632802 103.0
39.592893367 97.0
39.619153932 91.0
39.645414498 68.0
39.671675063 79.0
39.697935628 46.0
39.724196194 62.0
39.750456759 48.0
39.776717324 54.0
39.802977890 52.0
39.829238455 34.0
39.855499020 55.0
39.881759586 38.0
39.908020151 35.0
39.934280717 43.0
39.960541282 40.0
39.986801847 49.0
40.013062413 47.0
40.039322978 38.0
40.065583543 45.0
40.091844109 41.0
40.118104674 40.0
40.144365239 48.0
40.170625805 47.0
40.196886370 42.0
40.223146935 39.0
40.249407501 42.0
40.275668066 41.0
40.301928631 48.0
40.328189197 46.0
40.354449762 38.0
40.380710328 33.0
40.406970893 51.0
40.433231458 31.0
40.459492024 44.0
40.485752589 58.0
40.512013154 38.0
40.538273720 47.0
40.564534285 54.0
40.590794850 36.0
40.617055416 34.0
40.643315981 51.0
40.669576546 35.0
40.695837112 33.0
40.722097677 43.0
40.748358242 54.0
40.774618808 44.0
40.800879373 45.0
40.827139939 35.0
40.853400504 72.0
40.879661069 61.0
40.905921635 54.0
40.932182200 57.0
40.958442765 71.0
40.984703331 55.0
41.010963896 67.0
41.037224461 61.0
41.063485027 51.0
41.089745592 71.0
41.116006157 75.0
41.142266723 68.0
41.168527288 81.0
41.194787853 78.0
41.221048419 87.0
41.247308984 104.0
41.273569550 135.0
41.299830115 178.0
41.326090680 159.0
41.352351246 193.0
41.378611811 278.0
41.404872376 267.0
41.431132942 231.0
41.457393507 193.0
41.483654072 162.0
41.509914638 144.0
41.536175203 144.0
41.562435768 97.0
41.588696334 83.0
41.614956899 86.0
41.641217464 86.0
41.667478030 95.0
41.693738595 87.0
41.719999161 97.0
41.746259726 92.0
41.772520291 91.0
41.798780857 86.0
41.825041422 87.0
41.851301987 66.0
41.877562553 50.0
41.903823118 48.0
41.930083683 54.0
41.956344249 54.0
41.982604814 47.0
42.008865379 51.0
42.035125945 46.0
42.061386510 48.0
42.087647075 51.0
42.113907641 58.0
42.140168206 40.0
42.166428772 43.0
42.192689337 36.0
42.218949902 38.0
42.245210468 45.0
42.271471033 43.0
42.297731598 44.0
42.323992164 37.0
42.350252729 42.0
42.376513294 41.0
42.402773860 41.0
42.429034425 50.0
42.455294990 47.0
42.481555556 55.0
42.507816121 51.0
42.534076687 46.0
42.560337252 40.0
42.586597817 33.0
42.612858383 49.0
42.639118948 52.0
42.665379513 34.0
42.691640079 44.0
42.717900644 41.0
42.744161209 41.0
42.770421775 50.0
42.796682340 48.0
42.822942905 36.0
42.849203471 57.0
42.875464036 54.0
42.901724601 66.0
42.927985167 65.0
42.954245732 68.0
42.980506298 70.0
43.006766863 62.0
43.033027428 67.0
43.059287994 83.0
43.085548559 73.0
43.111809124 69.0
43.138069690 86.0
43.164330255 104.0
43.190590820 118.0
43.216851386 131.0
43.243111951 118.0
43.269372516 119.0
43.295633082 110.0
43.321893647 91.0
43.348154212 108.0
43.374414778 79.0
43.400675343 57.0
43.426935909 62.0
43.453196474 58.0
43.479457039 58.0
43.505717605 41.0
43.531978170 58.0
43.558238735 42.0
43.584499301 54.0
43.610759866 46.0
43.637020431 48.0
43.663280997 49.0
43.689541562 47.0
43.715802127 58.0
43.742062693 39.0
43.768323258 52.0
43.794583823 40.0
43.820844389 59.0
43.847104954 60.0
43.873365520 37.0
43.899626085 48.0
43.925886650 48.0
43.952147216 61.0
43.978407781 51.0
44.004668346 55.0
44.030928912 54.0
44.057189477 50.0
44.083450042 53.0
44.109710608 65.0
44.135971173 50.0
44.162231738 57.0
44.188492304 59.0
44.214752869 51.0
44.241013434 57.0
44.267274000 66.0
44.293534565 46.0
44.319795131 59.0
44.346055696 41.0
44.372316261 51.0
44.398576827 52.0
44.424837392 38.0
44.451097957 52.0
44.477358523 43.0
44.503619088 43.0
44.529879653 41.0
44.556140219 47.0
44.582400784 36.0
44.608661349 44.0
44.634921915 45.0
44.661182480 46.0
44.687443045 62.0
44.713703611 43.0
44.739964176 37.0
44.766224742 41.0
44.792485307 41.0
44.818745872 34.0
44.845006438 35.0
44.871267003 38.0
44.897527568 33.0
44.923788134 45.0
44.950048699 50.0
44.976309264 37.0
45.002569830 30.0
45.028830395 29.0
45.055090960 35.0
45.081351526 36.0
45.107612091 36.0
45.133872656 34.0
45.160133222 40.0
45.186393787 44.0
45.212654353 42.0
45.238914918 34.0
45.265175483 38.0
45.291436049 46.0
45.317696614 37.0
45.343957179 26.0
45.370217745 34.0
45.396478310 37.0
45.422738875 43.0
45.448999441 27.0
45.475260006 33.0
45.501520571 38.0
45.527781137 39.0
45.554041702 22.0
45.580302267 28.0
45.606562833 43.0
45.632823398 50.0
45.659083964 41.0
45.685344529 50.0
45.711605094 41.0
45.737865660 47.0
45.764126225 61.0
45.790386790 46.0
45.816647356 68.0
45.842907921 67.0
45.869168486 74.0
45.895429052 80.0
45.921689617 70.0
45.947950182 73.0
45.974210748 69.0
46.000471313 52.0
46.026731878 64.0
46.052992444 39.0
46.079253009 50.0
46.105513575 34.0
46.131774140 49.0
46.158034705 44.0
46.184295271 36.0
46.210555836 34.0
46.236816401 37.0
46.263076967 37.0
46.289337532 44.0
46.315598097 50.0
46.341858663 38.0
46.368119228 48.0
46.394379793 39.0
46.420640359 43.0
46.446900924 44.0
46.473161490 34.0
46.499422055 37.0
46.525682620 40.0
46.551943186 33.0
46.578203751 38.0
46.604464316 56.0
46.630724882 54.0
46.656985447 35.0
46.683246012 42.0
46.709506578 35.0
46.735767143 43.0
46.762027708 56.0
46.788288274 43.0
46.814548839 55.0
46.840809404 49.0
46.867069970 49.0
46.893330535 66.0
46.919591101 77.0
46.945851666 63.0
46.972112231 103.0
46.998372797 92.0
47.024633362 90.0
47.050893927 104.0
47.077154493 98.0
47.103415058 103.0
47.129675623 87.0
47.155936189 109.0
47.182196754 88.0
47.208457319 91.0
47.234717885 89.0
47.260978450 85.0
47.287239015 80.0
47.313499581 92.0
47.339760146 79.0
47.366020712 107.0
47.392281277 108.0
47.418541842 92.0
47.444802408 106.0
47.471062973 105.0
47.497323538 99.0
47.523584104 131.0
47.549844669 140.0
47.576105234 140.0
47.602365800 119.0
47.628626365 126.0
47.654886930 136.0
47.681147496 112.0
47.707408061 110.0
47.733668626 110.0
47.759929192 101.0
47.786189757 87.0
47.812450323 83.0
47.838710888 84.0
47.864971453 56.0
47.891232019 47.0
47.917492584 56.0
47.943753149 40.0
47.970013715 49.0
47.996274280 49.0
48.022534845 48.0
48.048795411 35.0
48.075055976 52.0
48.101316541 55.0
48.127577107 45.0
48.153837672 36.0
48.180098237 42.0
48.206358803 50.0
48.232619368 29.0
48.258879934 55.0
48.285140499 45.0
48.311401064 39.0
48.337661630 52.0
48.363922195 44.0
48.390182760 46.0
48.416443326 58.0
48.442703891 56.0
48.468964456 79.0
48.495225022 67.0
48.521485587 84.0
48.547746152 93.0
48.574006718 101.0
48.600267283 96.0
48.626527848 73.0
48.652788414 103.0
48.679048979 83.0
48.705309545 82.0
48.731570110 74.0
48.757830675 64.0
48.784091241 77.0
48.810351806 43.0
48.836612371 42.0
48.862872937 53.0
48.889133502 63.0
48.915394067 34.0
48.941654633 42.0
48.967915198 37.0
48.994175763 23.0
49.020436329 51.0
49.046696894 50.0
49.072957459 52.0
49.099218025 36.0
49.125478590 51.0
49.151739156 41.0
49.177999721 57.0
49.204260286 47.0
49.230520852 44.0
49.256781417 49.0
49.283041982 54.0
49.309302548 45.0
49.335563113 42.0
49.361823678 45.0
49.388084244 30.0
49.414344809 58.0
49.440605374 42.0
49.466865940 40.0
49.493126505 44.0
49.519387070 43.0
49.545647636 42.0
49.571908201 45.0
49.598168767 37.0
49.624429332 39.0
49.650689897 52.0
49.676950463 52.0
49.703211028 46.0
49.729471593 53.0
49.755732159 43.0
49.781992724 44.0
49.808253289 44.0
49.834513855 54.0
49.860774420 66.0
49.887034985 58.0
49.913295551 59.0
49.939556116 57.0
49.965816682 60.0
49.992077247 56.0
50.018337812 77.0
50.044598378 59.0
50.070858943 68.0
50.097119508 61.0
50.123380074 49.0
50.149640639 58.0
50.175901204 49.0
50.202161770 55.0
50.228422335 52.0
50.254682900 54.0
50.280943466 48.0
50.307204031 43.0
50.333464596 45.0
50.359725162 37.0
50.385985727 35.0
50.412246293 34.0
50.438506858 32.0
50.464767423 54.0
50.491027989 40.0
50.517288554 40.0
50.543549119 43.0
50.569809685 36.0
50.596070250 44.0
50.622330815 32.0
50.648591381 40.0
50.674851946 52.0
50.701112511 45.0
50.727373077 49.0
50.753633642 46.0
50.779894207 41.0
50.806154773 39.0
50.832415338 28.0
50.858675904 43.0
50.884936469 48.0
50.911197034 50.0
50.937457600 37.0
50.963718165 39.0
50.989978730 37.0
51.016239296 35.0
51.042499861 41.0
51.068760426 33.0
51.095020992 34.0
51.121281557 40.0
51.147542122 52.0
51.173802688 44.0
51.200063253 34.0
51.226323818 48.0
51.252584384 40.0
51.278844949 40.0
51.305105515 32.0
51.331366080 25.0
51.357626645 33.0
51.383887211 39.0
51.410147776 30.0
51.436408341 25.0
51.462668907 30.0
51.488929472 37.0
51.515190037 31.0
51.541450603 26.0
51.567711168 34.0
51.593971733 44.0
51.620232299 40.0
51.646492864 61.0
51.672753429 63.0
51.699013995 82.0
51.725274560 118.0
51.751535126 104.0
51.777795691 179.0
51.804056256 210.0
51.830316822 229.0
51.856577387 166.0
51.882837952 159.0
51.909098518 162.0
51.935359083 169.0
51.961619648 142.0
51.987880214 145.0
52.014140779 131.0
52.040401344 118.0
52.066661910 90.0
52.092922475 78.0
52.119183040 73.0
52.145443606 63.0
52.171704171 60.0
52.197964737 46.0
52.224225302 36.0
52.250485867 33.0
52.276746433 28.0
52.303006998 28.0
52.329267563 30.0
52.355528129 26.0
52.381788694 40.0
52.408049259 35.0
52.434309825 33.0
52.460570390 33.0
52.486830955 31.0
52.513091521 32.0
52.539352086 34.0
52.565612651 31.0
52.591873217 28.0
52.618133782 24.0
52.644394348 31.0
52.670654913 24.0
52.696915478 23.0
52.723176044 25.0
52.749436609 28.0
52.775697174 37.0
52.801957740 36.0
52.828218305 32.0
52.854478870 23.0
52.880739436 29.0
52.907000001 35.0
52.933260566 36.0
52.959521132 33.0
52.985781697 40.0
53.012042262 36.0
53.038302828 38.0
53.064563393 33.0
53.090823959 29.0
53.117084524 32.0
53.143345089 40.0
53.169605655 37.0
53.195866220 54.0
53.222126785 39.0
53.248387351 22.0
53.274647916 35.0
53.300908481 22.0
53.327169047 38.0
53.353429612 37.0
53.379690177 38.0
53.405950743 23.0
53.432211308 38.0
53.458471873 30.0
53.484732439 33.0
53.510993004 38.0
53.537253570 35.0
53.563514135 36.0
53.589774700 34.0
53.616035266 28.0
53.642295831 36.0
53.668556396 37.0
53.694816962 19.0
53.721077527 32.0
53.747338092 41.0
53.773598658 34.0
53.799859223 22.0
53.826119788 41.0
53.852380354 22.0
53.878640919 20.0
53.904901485 33.0
53.931162050 35.0
53.957422615 37.0
53.983683181 24.0
54.009943746 44.0
54.036204311 38.0
54.062464877 51.0
54.088725442 38.0
54.114986007 43.0
54.141246573 49.0
54.167507138 33.0
54.193767703 49.0
54.220028269 56.0
54.246288834 40.0
54.272549399 32.0
54.298809965 39.0
54.325070530 48.0
54.351331096 27.0
54.377591661 40.0
54.403852226 23.0
54.430112792 26.0
54.456373357 32.0
54.482633922 31.0
54.508894488 38.0
54.535155053 38.0
54.561415618 21.0
54.587676184 22.0
54.613936749 39.0
54.640197314 29.0
54.666457880 35.0
54.692718445 31.0
54.718979010 31.0
54.745239576 31.0
54.771500141 31.0
54.797760707 28.0
54.824021272 36.0
54.850281837 29.0
54.876542403 23.0
54.902802968 29.0
54.929063533 34.0
54.955324099 21.0
54.981584664 31.0
55.007845229 19.0
55.034105795 31.0
55.060366360 27.0
55.086626925 40.0
55.112887491 32.0
55.139148056 35.0
55.165408621 38.0
55.191669187 36.0
55.217929752 26.0
55.244190318 33.0
55.270450883 35.0
55.296711448 31.0
55.322972014 36.0
55.349232579 35.0
55.375493144 27.0
55.401753710 29.0
55.428014275 26.0
55.454274840 29.0
55.480535406 21.0
55.506795971 23.0
55.533056536 38.0
55.559317102 23.0
55.585577667 38.0
55.611838232 22.0
55.638098798 30.0
55.664359363 21.0
55.690619929 24.0
55.716880494 35.0
55.743141059 30.0
55.769401625 31.0
55.795662190 29.0
55.821922755 19.0
55.848183321 36.0
55.874443886 34.0
55.900704451 33.0
55.926965017 29.0
55.953225582 39.0
55.979486147 38.0
56.005746713 38.0
56.032007278 39.0
56.058267843 35.0
56.084528409 36.0
56.110788974 40.0
56.137049540 52.0
56.163310105 36.0
56.189570670 46.0
56.215831236 40.0
56.242091801 35.0
56.268352366 46.0
56.294612932 48.0
56.320873497 44.0
56.347134062 51.0
56.373394628 51.0
56.399655193 57.0
56.425915758 63.0
56.452176324 68.0
56.478436889 73.0
56.504697454 78.0
56.530958020 91.0
56.557218585 98.0
56.583479151 90.0
56.609739716 103.0
56.636000281 132.0
56.662260847 118.0
56.688521412 104.0
56.714781977 77.0
56.741042543 81.0
56.767303108 88.0
56.793563673 68.0
56.819824239 68.0
56.846084804 58.0
56.872345369 48.0
56.898605935 39.0
56.924866500 36.0
56.951127065 37.0
56.977387631 38.0
57.003648196 27.0
57.029908762 30.0
57.056169327 45.0
57.082429892 29.0
57.108690458 38.0
57.134951023 27.0
57.161211588 33.0
57.187472154 37.0
57.213732719 30.0
57.239993284 28.0
57.266253850 45.0
57.292514415 55.0
57.318774980 38.0
57.345035546 44.0
57.371296111 47.0
57.397556676 53.0
57.423817242 57.0
57.450077807 64.0
57.476338373 73.0
57.502598938 74.0
57.528859503 63.0
57.555120069 71.0
57.581380634 60.0
57.607641199 59.0
57.633901765 47.0
57.660162330 57.0
57.686422895 40.0
57.712683461 36.0
57.738944026 36.0
57.765204591 34.0
57.791465157 36.0
57.817725722 29.0
57.843986288 43.0
57.870246853 42.0
57.896507418 41.0
57.922767984 42.0
57.949028549 40.0
57.975289114 45.0
58.001549680 40.0
58.027810245 24.0
58.054070810 35.0
58.080331376 53.0
58.106591941 38.0
58.132852506 32.0
58.159113072 36.0
58.185373637 34.0
58.211634202 37.0
58.237894768 50.0
58.264155333 42.0
58.290415899 39.0
58.316676464 51.0
58.342937029 28.0
58.369197595 40.0
58.395458160 36.0
58.421718725 48.0
58.447979291 32.0
58.474239856 30.0
58.500500421 35.0
58.526760987 37.0
58.553021552 30.0
58.579282117 51.0
58.605542683 44.0
58.631803248 39.0
58.658063813 32.0
58.684324379 38.0
58.710584944 42.0
58.736845510 51.0
58.763106075 41.0
58.789366640 52.0
58.815627206 35.0
58.841887771 52.0
58.868148336 30.0
58.894408902 36.0
58.920669467 38.0
58.946930032 28.0
58.973190598 34.0
58.999451163 46.0
59.025711728 37.0
59.051972294 40.0
59.078232859 44.0
59.104493424 36.0
59.130753990 34.0
59.157014555 38.0
59.183275121 27.0
59.209535686 34.0
59.235796251 40.0
59.262056817 32.0
59.288317382 27.0
59.314577947 30.0
59.340838513 38.0
59.367099078 40.0
59.393359643 41.0
59.419620209 53.0
59.445880774 38.0
59.472141339 47.0
59.498401905 42.0
59.524662470 62.0
59.550923035 43.0
59.577183601 41.0
59.603444166 30.0
59.629704732 37.0
59.655965297 45.0
59.682225862 39.0
59.708486428 33.0
59.734746993 37.0
59.761007558 42.0
59.787268124 24.0
59.813528689 38.0
59.839789254 33.0
59.866049820 50.0
59.892310385 49.0
59.918570950 35.0
59.944831516 42.0
59.971092081 78.0
59.997352646 78.0
60.023613212 93.0
60.049873777 101.0
60.076134343 93.0
60.102394908 89.0
60.128655473 82.0
60.154916039 90.0
60.181176604 78.0
60.207437169 79.0
60.233697735 59.0
60.259958300 65.0
60.286218865 64.0
60.312479431 53.0
60.338739996 51.0
60.365000561 31.0
60.391261127 37.0
60.417521692 42.0
60.443782257 45.0
60.470042823 42.0
60.496303388 51.0
60.522563954 48.0
60.548824519 37.0
60.575085084 57.0
60.601345650 38.0
60.627606215 60.0
60.653866780 53.0
60.680127346 66.0
60.706387911 59.0
60.732648476 62.0
60.758909042 82.0
60.785169607 65.0
60.811430172 85.0
60.837690738 64.0
60.863951303 63.0
60.890211868 49.0
60.916472434 71.0
60.942732999 56.0
60.968993565 34.0
60.995254130 49.0
61.021514695 47.0
61.047775261 38.0
61.074035826 45.0
61.100296391 42.0
61.126556957 48.0
61.152817522 46.0
61.179078087 33.0
61.205338653 54.0
61.231599218 46.0
61.257859783 37.0
61.284120349 53.0
61.310380914 43.0
61.336641479 43.0
61.362902045 35.0
61.389162610 36.0
61.415423176 26.0
61.441683741 39.0
61.467944306 33.0
61.494204872 50.0
61.520465437 33.0
61.546726002 39.0
61.572986568 45.0
61.599247133 35.0
61.625507698 39.0
61.651768264 30.0
61.678028829 37.0
61.704289394 32.0
61.730549960 38.0
61.756810525 31.0
61.783071091 41.0
61.809331656 26.0
61.835592221 38.0
61.861852787 32.0
61.888113352 43.0
61.914373917 38.0
61.940634483 33.0
61.966895048 35.0
61.993155613 31.0
62.019416179 41.0
62.045676744 35.0
62.071937309 41.0
62.098197875 57.0
62.124458440 45.0
62.150719005 34.0
62.176979571 48.0
62.203240136 57.0
62.229500702 79.0
62.255761267 75.0
62.282021832 88.0
62.308282398 114.0
62.334542963 143.0
62.360803528 113.0
62.387064094 127.0
62.413324659 139.0
62.439585224 120.0
62.465845790 131.0
62.492106355 116.0
62.518366920 115.0
62.544627486 107.0
62.570888051 99.0
62.597148616 96.0
62.623409182 98.0
62.649669747 98.0
62.675930313 87.0
62.702190878 75.0
62.728451443 58.0
62.754712009 64.0
62.780972574 61.0
62.807233139 47.0
62.833493705 47.0
62.859754270 43.0
62.886014835 40.0
62.912275401 35.0
62.938535966 45.0
62.964796531 33.0
62.991057097 41.0
63.017317662 43.0
63.043578227 33.0
63.069838793 38.0
63.096099358 38.0
63.122359924 45.0
63.148620489 44.0
63.174881054 50.0
63.201141620 37.0
63.227402185 36.0
63.253662750 43.0
63.279923316 31.0
63.306183881 26.0
63.332444446 40.0
63.358705012 28.0
63.384965577 25.0
63.411226142 21.0
63.437486708 31.0
63.463747273 35.0
63.490007838 35.0
63.516268404 32.0
63.542528969 31.0
63.568789535 30.0
63.595050100 41.0
63.621310665 31.0
63.647571231 26.0
63.673831796 40.0
63.700092361 42.0
63.726352927 47.0
63.752613492 46.0
63.778874057 64.0
63.805134623 48.0
63.831395188 58.0
63.857655753 49.0
63.883916319 46.0
63.910176884 48.0
63.936437449 40.0
63.962698015 53.0
63.988958580 46.0
64.015219146 54.0
64.041479711 41.0
64.067740276 46.0
64.094000842 37.0
64.120261407 34.0
64.146521972 25.0
64.172782538 33.0
64.199043103 34.0
64.225303668 37.0
64.251564234 42.0
64.277824799 24.0
64.304085364 30.0
64.330345930 31.0
64.356606495 36.0
64.382867060 44.0
64.409127626 29.0
64.435388191 28.0
64.461648757 27.0
64.487909322 29.0
64.514169887 43.0
64.540430453 33.0
64.566691018 47.0
64.592951583 31.0
64.619212149 38.0
64.645472714 37.0
64.671733279 33.0
64.697993845 40.0
64.724254410 40.0
64.750514975 47.0
64.776775541 43.0
64.803036106 46.0
64.829296671 41.0
64.855557237 40.0
64.881817802 37.0
64.908078368 44.0
64.934338933 36.0
64.960599498 39.0
64.986860064 49.0
65.013120629 39.0
65.039381194 30.0
65.065641760 32.0
65.091902325 31.0
65.118162890 23.0
65.144423456 30.0
65.170684021 30.0
65.196944586 32.0
65.223205152 30.0
65.249465717 34.0
65.275726283 32.0
65.301986848 40.0
65.328247413 32.0
65.354507979 27.0
65.380768544 41.0
65.407029109 44.0
65.433289675 31.0
65.459550240 30.0
65.485810805 40.0
65.512071371 35.0
65.538331936 38.0
65.564592501 47.0
65.590853067 24.0
65.617113632 35.0
65.643374197 46.0
65.669634763 50.0
65.695895328 31.0
65.722155894 36.0
65.748416459 35.0
65.774677024 45.0
65.800937590 38.0
65.827198155 42.0
65.853458720 40.0
65.879719286 43.0
65.905979851 36.0
65.932240416 45.0
65.958500982 28.0
65.984761547 31.0
66.011022112 34.0
66.037282678 28.0
66.063543243 30.0
66.089803808 42.0
66.116064374 25.0
66.142324939 25.0
66.168585505 34.0
66.194846070 36.0
66.221106635 23.0
66.247367201 19.0
66.273627766 29.0
66.299888331 35.0
66.326148897 28.0
66.352409462 30.0
66.378670027 27.0
66.404930593 22.0
66.431191158 26.0
66.457451723 32.0
66.483712289 23.0
66.509972854 30.0
66.536233419 29.0
66.562493985 36.0
66.588754550 37.0
66.615015116 26.0
66.641275681 36.0
66.667536246 20.0
66.693796812 33.0
66.720057377 36.0
66.746317942 28.0
66.772578508 18.0
66.798839073 34.0
66.825099638 26.0
66.851360204 24.0
66.877620769 21.0
66.903881334 27.0
66.930141900 17.0
66.956402465 19.0
66.982663030 32.0
67.008923596 27.0
67.035184161 19.0
67.061444727 31.0
67.087705292 20.0
67.113965857 28.0
67.140226423 34.0
67.166486988 26.0
67.192747553 27.0
67.219008119 26.0
67.245268684 18.0
67.271529249 27.0
67.297789815 32.0
67.324050380 33.0
67.350310945 42.0
67.376571511 40.0
67.402832076 34.0
67.429092641 38.0
67.455353207 39.0
67.481613772 46.0
67.507874338 39.0
67.534134903 47.0
67.560395468 49.0
67.586656034 39.0
67.612916599 31.0
67.639177164 38.0
67.665437730 35.0
67.691698295 33.0
67.717958860 37.0
67.744219426 30.0
67.770479991 29.0
67.796740556 25.0
67.823001122 26.0
67.849261687 25.0
67.875522252 26.0
67.901782818 24.0
67.928043383 25.0
67.954303949 38.0
67.980564514 27.0
68.006825079 20.0
68.033085645 30.0
68.059346210 31.0
68.085606775 40.0
68.111867341 26.0
68.138127906 32.0
68.164388471 29.0
68.190649037 28.0
68.216909602 42.0
68.243170167 33.0
68.269430733 29.0
68.295691298 25.0
68.321951863 31.0
68.348212429 39.0
68.374472994 30.0
68.400733560 38.0
68.426994125 32.0
68.453254690 35.0
68.479515256 42.0
68.505775821 39.0
68.532036386 38.0
68.558296952 35.0
68.584557517 33.0
68.610818082 31.0
68.637078648 30.0
68.663339213 38.0
68.689599778 27.0
68.715860344 33.0
68.742120909 28.0
68.768381474 22.0
68.794642040 33.0
68.820902605 25.0
68.847163171 31.0
68.873423736 29.0
68.899684301 27.0
68.925944867 32.0
68.952205432 26.0
68.978465997 24.0
69.004726563 20.0
69.030987128 26.0
69.057247693 25.0
69.083508259 25.0
69.109768824 20.0
69.136029389 39.0
69.162289955 27.0
69.188550520 33.0
69.214811086 27.0
69.241071651 32.0
69.267332216 32.0
69.293592782 28.0
69.319853347 22.0
69.346113912 21.0
69.372374478 28.0
69.398635043 21.0
69.424895608 32.0
69.451156174 27.0
69.477416739 24.0
69.503677304 29.0
69.529937870 28.0
69.556198435 23.0
69.582459000 36.0
69.608719566 30.0
69.634980131 41.0
69.661240697 32.0
69.687501262 24.0
69.713761827 30.0
69.740022393 26.0
69.766282958 28.0
69.792543523 32.0
69.818804089 25.0
69.845064654 37.0
69.871325219 31.0
69.897585785 31.0
69.923846350 30.0
69.950106915 39.0
69.976367481 25.0
70.002628046 32.0
70.028888611 29.0
70.055149177 28.0
70.081409742 27.0
70.107670308 34.0
70.133930873 32.0
70.160191438 24.0
70.186452004 30.0
70.212712569 28.0
70.238973134 24.0
70.265233700 26.0
70.291494265 24.0
70.317754830 25.0
70.344015396 25.0
70.370275961 33.0
70.396536526 44.0
70.422797092 35.0
70.449057657 24.0
70.475318222 32.0
70.501578788 23.0
70.527839353 37.0
70.554099919 29.0
70.580360484 41.0
70.606621049 37.0
70.632881615 27.0
70.659142180 23.0
70.685402745 23.0
70.711663311 21.0
70.737923876 24.0
70.764184441 30.0
70.790445007 17.0
70.816705572 29.0
70.842966137 25.0
70.869226703 38.0
70.895487268 27.0
70.921747833 29.0
70.948008399 27.0
70.974268964 32.0
71.000529530 28.0
71.026790095 29.0
71.053050660 33.0
71.079311226 40.0
71.105571791 28.0
71.131832356 25.0
71.158092922 30.0
71.184353487 29.0
71.210614052 35.0
71.236874618 27.0
71.263135183 34.0
71.289395748 39.0
71.315656314 31.0
71.341916879 32.0
71.368177444 30.0
71.394438010 26.0
71.420698575 35.0
71.446959141 37.0
71.473219706 22.0
71.499480271 32.0
71.525740837 21.0
71.552001402 33.0
71.578261967 31.0
71.604522533 34.0
71.630783098 27.0
71.657043663 27.0
71.683304229 31.0
71.709564794 24.0
71.735825359 26.0
71.762085925 36.0
71.788346490 29.0
71.814607055 25.0
71.840867621 23.0
71.867128186 20.0
71.893388752 25.0
71.919649317 33.0
71.945909882 30.0
71.972170448 31.0
71.998431013 29.0
72.024691578 16.0
72.050952144 26.0
72.077212709 25.0
72.103473274 32.0
72.129733840 26.0
72.155994405 28.0
72.182254970 30.0
72.208515536 24.0
72.234776101 28.0
72.261036666 24.0
72.287297232 20.0
72.313557797 29.0
72.339818363 23.0
72.366078928 33.0
72.392339493 24.0
72.418600059 29.0
72.444860624 22.0
72.471121189 31.0
72.497381755 22.0
72.523642320 40.0
72.549902885 36.0
72.576163451 23.0
72.602424016 30.0
72.628684581 20.0
72.654945147 32.0
72.681205712 25.0
72.707466277 25.0
72.733726843 30.0
72.759987408 26.0
72.786247974 22.0
72.812508539 26.0
72.838769104 21.0
72.865029670 21.0
72.891290235 33.0
72.917550800 31.0
72.943811366 34.0
72.970071931 27.0
72.996332496 35.0
73.022593062 28.0
73.048853627 31.0
73.075114192 30.0
73.101374758 28.0
73.127635323 31.0
73.153895889 26.0
73.180156454 30.0
73.206417019 24.0
73.232677585 22.0
73.258938150 23.0
73.285198715 19.0
73.311459281 24.0
73.337719846 29.0
73.363980411 23.0
73.390240977 32.0
73.416501542 24.0
73.442762107 31.0
73.469022673 26.0
73.495283238 19.0
73.521543803 28.0
73.547804369 29.0
73.574064934 23.0
73.600325500 33.0
73.626586065 27.0
73.652846630 24.0
73.679107196 19.0
73.705367761 23.0
73.731628326 40.0
73.757888892 32.0
73.784149457 31.0
73.810410022 30.0
73.836670588 17.0
73.862931153 23.0
73.889191718 18.0
73.915452284 22.0
73.941712849 21.0
73.967973414 16.0
73.994233980 17.0
74.020494545 28.0
74.046755111 29.0
74.073015676 20.0
74.099276241 29.0
74.125536807 24.0
74.151797372 30.0
74.178057937 28.0
74.204318503 25.0
74.230579068 20.0
74.256839633 28.0
74.283100199 19.0
74.309360764 23.0
74.335621329 24.0
74.361881895 27.0
74.388142460 24.0
74.414403025 18.0
74.440663591 22.0
74.466924156 26.0
74.493184722 22.0
74.519445287 21.0
74.545705852 28.0
74.571966418 27.0
74.598226983 21.0
74.624487548 22.0
74.650748114 27.0
74.677008679 26.0
74.703269244 27.0
74.729529810 18.0
74.755790375 28.0
74.782050940 19.0
74.808311506 24.0
74.834572071 23.0
74.860832636 21.0
74.887093202 35.0
74.913353767 28.0
74.939614333 25.0
74.965874898 18.0
74.992135463 27.0
75.018396029 17.0
75.044656594 26.0
75.070917159 21.0
75.097177725 28.0
75.123438290 28.0
75.149698855 33.0
75.175959421 36.0
75.202219986 27.0
75.228480551 20.0
75.254741117 16.0
75.281001682 22.0
75.307262247 28.0
75.333522813 26.0
75.359783378 26.0
75.386043944 21.0
75.412304509 19.0
75.438565074 17.0
75.464825640 17.0
75.491086205 26.0
75.517346770 21.0
75.543607336 25.0
75.569867901 19.0
75.596128466 25.0
75.622389032 18.0
75.648649597 23.0
75.674910162 20.0
75.701170728 31.0
75.727431293 27.0
75.753691858 25.0
75.779952424 28.0
75.806212989 17.0
75.832473555 17.0
75.858734120 18.0
75.884994685 26.0
75.911255251 23.0
75.937515816 24.0
75.963776381 26.0
75.990036947 26.0
76.016297512 25.0
76.042558077 23.0
76.068818643 29.0
76.095079208 19.0
76.121339773 33.0
76.147600339 19.0
76.173860904 21.0
76.200121469 22.0
76.226382035 32.0
76.252642600 26.0
76.278903166 24.0
76.305163731 22.0
76.331424296 28.0
76.357684862 21.0
76.383945427 35.0
76.410205992 22.0
76.436466558 33.0
76.462727123 28.0
76.488987688 31.0
76.515248254 25.0
76.541508819 28.0
76.567769384 25.0
76.594029950 28.0
76.620290515 25.0
76.646551081 20.0
76.672811646 21.0
76.699072211 31.0
76.725332777 24.0
76.751593342 27.0
76.777853907 20.0
76.804114473 28.0
76.830375038 24.0
76.856635603 24.0
76.882896169 23.0
76.909156734 29.0
76.935417299 26.0
76.961677865 29.0
76.987938430 22.0
77.014198995 22.0
77.040459561 26.0
77.066720126 32.0
77.092980692 29.0
77.119241257 21.0
77.145501822 22.0
77.171762388 23.0
77.198022953 38.0
77.224283518 24.0
77.250544084 23.0
77.276804649 18.0
77.303065214 28.0
77.329325780 25.0
77.355586345 27.0
77.381846910 26.0
77.408107476 20.0
77.434368041 23.0
77.460628606 22.0
77.486889172 24.0
77.513149737 26.0
77.539410303 24.0
77.565670868 25.0
77.591931433 27.0
77.618191999 17.0
77.644452564 31.0
77.670713129 24.0
77.696973695 20.0
77.723234260 27.0
77.749494825 21.0
77.775755391 19.0
77.802015956 22.0
77.828276521 21.0
77.854537087 30.0
77.880797652 20.0
77.907058217 16.0
77.933318783 25.0
77.959579348 24.0
77.985839914 21.0
78.012100479 25.0
78.038361044 20.0
78.064621610 22.0
78.090882175 19.0
78.117142740 27.0
78.143403306 23.0
78.169663871 19.0
78.195924436 37.0
78.222185002 22.0
78.248445567 25.0
78.274706132 25.0
78.300966698 28.0
78.327227263 27.0
78.353487828 26.0
78.379748394 25.0
78.406008959 27.0
78.432269525 28.0
78.458530090 18.0
78.484790655 19.0
78.511051221 21.0
78.537311786 19.0
78.563572351 32.0
78.589832917 19.0
78.616093482 31.0
78.642354047 30.0
78.668614613 30.0
78.694875178 24.0
78.721135743 44.0
78.747396309 32.0
78.773656874 18.0
78.799917439 21.0
78.826178005 22.0
78.852438570 25.0
78.878699136 16.0
78.904959701 20.0
78.931220266 39.0
78.957480832 16.0
78.983741397 26.0
79.010001962 14.0
79.036262528 26.0
79.062523093 19.0
79.088783658 25.0
79.115044224 28.0
79.141304789 29.0
79.167565354 26.0
79.193825920 19.0
79.220086485 43.0
79.246347050 23.0
79.272607616 21.0
79.298868181 36.0
79.325128747 30.0
79.351389312 28.0
79.377649877 31.0
79.403910443 28.0
79.430171008 36.0
79.456431573 27.0
79.482692139 27.0
79.508952704 31.0
79.535213269 28.0
79.561473835 33.0
79.587734400 26.0
79.613994965 25.0
79.640255531 29.0
79.666516096 28.0
79.692776661 23.0
79.719037227 31.0
79.745297792 29.0
79.771558358 23.0
79.797818923 29.0
79.824079488 34.0
79.850340054 24.0
79.876600619 25.0
79.902861184 25.0
79.929121750 31.0
79.955382315 35.0
79.981642880 24.0
80.007903446 30.0
80.034164011 30.0
80.060424576 16.0
80.086685142 35.0
80.112945707 21.0
80.139206272 36.0
80.165466838 32.0
80.191727403 29.0
80.217987969 30.0
80.244248534 28.0
80.270509099 36.0
80.296769665 42.0
80.323030230 27.0
80.349290795 36.0
80.375551361 30.0
80.401811926 34.0
80.428072491 38.0
80.454333057 24.0
80.480593622 27.0
80.506854187 35.0
80.533114753 25.0
80.559375318 28.0
80.585635884 28.0
80.611896449 21.0
80.638157014 18.0
80.664417580 17.0
80.690678145 17.0
80.716938710 27.0
80.743199276 17.0
80.769459841 23.0
80.795720406 26.0
80.821980972 27.0
80.848241537 20.0
80.874502102 26.0
80.900762668 28.0
80.927023233 25.0
80.953283798 26.0
80.979544364 18.0
81.005804929 22.0
81.032065495 28.0
81.058326060 27.0
81.084586625 29.0
81.110847191 17.0
81.137107756 21.0
81.163368321 41.0
81.189628887 34.0
81.215889452 24.0
81.242150017 24.0
81.268410583 34.0
81.294671148 36.0
81.320931713 31.0
81.347192279 23.0
81.373452844 25.0
81.399713409 30.0
81.425973975 23.0
81.452234540 21.0
81.478495106 34.0
81.504755671 33.0
81.531016236 22.0
81.557276802 32.0
81.583537367 32.0
81.609797932 30.0
81.636058498 38.0
81.662319063 29.0
81.688579628 26.0
81.714840194 36.0
81.741100759 34.0
81.767361324 26.0
81.793621890 25.0
81.819882455 29.0
81.846143020 22.0
81.872403586 32.0
81.898664151 28.0
81.924924717 32.0
81.951185282 35.0
81.977445847 26.0
82.003706413 27.0
82.029966978 32.0
82.056227543 28.0
82.082488109 27.0
82.108748674 20.0
82.135009239 32.0
82.161269805 31.0
82.187530370 34.0
82.213790935 33.0
82.240051501 24.0
82.266312066 23.0
82.292572631 18.0
82.318833197 34.0
82.345093762 26.0
82.371354328 25.0
82.397614893 18.0
82.423875458 19.0
82.450136024 22.0
82.476396589 30.0
82.502657154 23.0
82.528917720 28.0
82.555178285 29.0
82.581438850 29.0
82.607699416 19.0
82.633959981 16.0
82.660220546 25.0
82.686481112 36.0
82.712741677 20.0
82.739002242 23.0
82.765262808 32.0
82.791523373 23.0
82.817783939 25.0
82.844044504 21.0
82.870305069 31.0
82.896565635 39.0
82.922826200 25.0
82.949086765 20.0
82.975347331 36.0
83.001607896 30.0
83.027868461 30.0
83.054129027 21.0
83.080389592 24.0
83.106650157 31.0
83.132910723 26.0
83.159171288 24.0
83.185431853 30.0
83.211692419 28.0
83.237952984 32.0
83.264213550 34.0
83.290474115 28.0
83.316734680 23.0
83.342995246 52.0
83.369255811 43.0
83.395516376 25.0
83.421776942 33.0
83.448037507 30.0
83.474298072 30.0
83.500558638 37.0
83.526819203 31.0
83.553079768 30.0
83.579340334 39.0
83.605600899 32.0
83.631861464 28.0
83.658122030 26.0
83.684382595 37.0
83.710643161 33.0
83.736903726 33.0
83.763164291 42.0
83.789424857 37.0
83.815685422 45.0
83.841945987 52.0
83.868206553 41.0
83.894467118 54.0
83.920727683 39.0
83.946988249 34.0
83.973248814 36.0
83.999509379 39.0
84.025769945 39.0
84.052030510 36.0
84.078291075 53.0
84.104551641 41.0
84.130812206 19.0
84.157072772 38.0
84.183333337 52.0
84.209593902 34.0
84.235854468 28.0
84.262115033 34.0
84.288375598 31.0
84.314636164 31.0
84.340896729 25.0
84.367157294 27.0
84.393417860 33.0
84.419678425 20.0
84.445938990 35.0
84.472199556 27.0
84.498460121 29.0
84.524720687 35.0
84.550981252 30.0
84.577241817 28.0
84.603502383 29.0
84.629762948 30.0
84.656023513 24.0
84.682284079 28.0
84.708544644 28.0
84.734805209 35.0
84.761065775 32.0
84.787326340 25.0
84.813586905 30.0
84.839847471 38.0
84.866108036 21.0
84.892368601 42.0
84.918629167 31.0
84.944889732 35.0
84.971150298 26.0
84.997410863 37.0
85.023671428 30.0
85.049931994 41.0
85.076192559 26.0
85.102453124 21.0
85.128713690 37.0
85.154974255 25.0
85.181234820 34.0
85.207495386 24.0
85.233755951 25.0
85.260016516 30.0
85.286277082 32.0
85.312537647 46.0
85.338798212 38.0
85.365058778 33.0
85.391319343 42.0
85.417579909 35.0
85.443840474 40.0
85.470101039 31.0
85.496361605 41.0
85.522622170 33.0
85.548882735 43.0
85.575143301 22.0
85.601403866 37.0
85.627664431 44.0
85.653924997 31.0
85.680185562 37.0
85.706446127 35.0
85.732706693 28.0
85.758967258 33.0
85.785227823 35.0
85.811488389 29.0
85.837748954 27.0
85.864009520 42.0
85.890270085 32.0
85.916530650 23.0
85.942791216 29.0
85.969051781 23.0
85.995312346 35.0
86.021572912 32.0
86.047833477 27.0
86.074094042 24.0
86.100354608 29.0
86.126615173 35.0
86.152875738 25.0
86.179136304 24.0
86.205396869 28.0
86.231657434 22.0
86.257918000 33.0
86.284178565 38.0
86.310439131 33.0
86.336699696 28.0
86.362960261 29.0
86.389220827 41.0
86.415481392 25.0
86.441741957 21.0
86.468002523 28.0
86.494263088 26.0
86.520523653 45.0
86.546784219 30.0
86.573044784 34.0
86.599305349 31.0
86.625565915 36.0
86.651826480 40.0
86.678087045 30.0
86.704347611 30.0
86.730608176 29.0
86.756868742 35.0
86.783129307 28.0
86.809389872 28.0
86.835650438 23.0
86.861911003 27.0
86.888171568 26.0
86.914432134 34.0
86.940692699 25.0
86.966953264 22.0
86.993213830 28.0
87.019474395 23.0
87.045734960 29.0
87.071995526 19.0
87.098256091 31.0
87.124516656 17.0
87.150777222 22.0
87.177037787 16.0
87.203298353 22.0
87.229558918 22.0
87.255819483 20.0
87.282080049 25.0
87.308340614 22.0
87.334601179 15.0
87.360861745 22.0
87.387122310 29.0
87.413382875 22.0
87.439643441 13.0
87.465904006 27.0
87.492164571 28.0
87.518425137 37.0
87.544685702 26.0
87.570946267 28.0
87.597206833 36.0
87.623467398 30.0
87.649727964 31.0
87.675988529 22.0
87.702249094 16.0
87.728509660 32.0
87.754770225 21.0
87.781030790 21.0
87.807291356 29.0
87.833551921 32.0
87.859812486 24.0
87.886073052 27.0
87.912333617 20.0
87.938594182 19.0
87.964854748 23.0
87.991115313 22.0
88.017375878 33.0
88.043636444 22.0
88.069897009 24.0
88.096157575 21.0
88.122418140 26.0
88.148678705 19.0
88.174939271 28.0
88.201199836 22.0
88.227460401 14.0
88.253720967 19.0
88.279981532 29.0
88.306242097 24.0
88.332502663 21.0
88.358763228 23.0
88.385023793 21.0
88.411284359 22.0
88.437544924 32.0
88.463805490 20.0
88.490066055 31.0
88.516326620 20.0
88.542587186 25.0
88.568847751 28.0
88.595108316 31.0
88.621368882 23.0
88.647629447 25.0
88.673890012 26.0
88.700150578 34.0
88.726411143 16.0
88.752671708 35.0
88.778932274 19.0
88.805192839 20.0
88.831453404 22.0
88.857713970 11.0
88.883974535 28.0
88.910235101 23.0
88.936495666 30.0
88.962756231 21.0
88.989016797 28.0
89.015277362 28.0
89.041537927 34.0
89.067798493 22.0
89.094059058 22.0
89.120319623 33.0
89.146580189 22.0
89.172840754 25.0
89.199101319 28.0
89.225361885 22.0
89.251622450 25.0
89.277883015 26.0
89.304143581 19.0
89.330404146 23.0
89.356664712 24.0
89.382925277 22.0
89.409185842 24.0
89.435446408 26.0
89.461706973 20.0
89.487967538 30.0
89.514228104 21.0
89.540488669 28.0
89.566749234 32.0
89.593009800 28.0
89.619270365 31.0
89.645530930 21.0
89.671791496 32.0
89.698052061 35.0
89.724312626 32.0
89.750573192 20.0
89.776833757 24.0
89.803094323 31.0
89.829354888 41.0
89.855615453 41.0
89.881876019 29.0
89.908136584 35.0
89.934397149 41.0
89.960657715 35.0
89.986918280 49.0
