$$ -----------------------
$$ Labels defined by JCAMP
$$ -----------------------

## TITLE= Unknown
## JCAMP-DX= 4.24
## DATA TYPE= RD
## BLOCKS= 1
## ORIGIN= PANalytical B.V.
## OWNER= Copyright(C) 2004 by PANalytical B.V.
## DATE= 26/02/17
## TIME= 13:01:10
## SAMPLE DESCRIPTION= 
## SOURCE REFERENCE= Converted XRDML file
##= Configuration=Flat Sample Stage, Owner=pc, Creation date=11/22/2023 7:32:59 PM
Goniometer=Theta/Theta; Minimum step size 2Theta:0.0001; Minimum step size Omega:0.0001
Sample stage=Stage for flat samples/holders
Diffractometer system=EMPYREAN
Measurement program=C:\PANalytical\Data Collector\Programs\Fiber.xrdmp, Created identifier={E8C07BD7-8A8C-42E2-8622-4BC130302805}, Created by=pc, Id=WL:DESKTOP-BC0RBBD:pc, Creation date=1/6/2025 4:49:46 PM, Modified identifier={32F7A4C4-C999-46E4-852F-B36327219E96}, Modified by=pc, Id=WL:DESKTOP-BC0RBBD:pc, Modification date=1/12/2026 4:17:19 PM

$$ ------------------------------------
$$ Labels defined by PANalytical
$$ ------------------------------------

$$ Wavelengths are given in Angstrom.
##$WAVELENGTH ALPHA1= 1.5405980
##$WAVELENGTH ALPHA2= 1.5444260
##$INTENSITY RATIO ALPHA2/ALPHA1= 0.5000000
##$MONOCHROMATOR= NO
##$GENERATOR VOLTAGE= 45
##$TUBE CURRENT= 40
##$ANODE MATERIAL= Cu
##$TUBE FOCUS= LONG FINE
##$SCAN TYPE= CONTINUOUS
##$COUNT TIME= 7.140
##$DIVERGENCE SLIT= 0.71974

$$ -----------------------------------------------------
$$ Labels defined by PANalytical for PC-APD files
$$ -----------------------------------------------------

##$DIFFRACTOMETER= XPERT

$$ ------------------------------------------------------
$$ Labels defined by PANalytical for APD1700 files
$$ ------------------------------------------------------

##$TAKE OFF ANGLE= 7.600
##$DETECTOR TYPE= PIXcel1D-Medipix3 detector
##$SCATTER SLIT= 2.00

$$ -----------------------
$$ Labels defined by JCAMP
$$ -----------------------

## XUNITS= TWO-THETA
## YUNITS= COUNTS
## XFACTOR= 1.0
## YFACTOR= 1.0
## FIRSTX= 6.0056303
## LASTX= 89.9869183
## DELTAX= 0.0262606
## NPOINTS= 3199
## FIRSTY= 317.000
## MINX= 6.00563
## MAXX= 89.98692
## MINY= 11.000
## MAXY= 735.000
## XYDATA= X++<Y..Y>
    6.0056      317.000      330.000      330.000      329.000      331.000
    6.1369      338.000      314.000      338.000      338.000      305.000
    6.2682      333.000      320.000      283.000      291.000      309.000
    6.3995      301.000      307.000      290.000      358.000      296.000
    6.5308      303.000      332.000      274.000      291.000      313.000
    6.6621      317.000      305.000      295.000      321.000      272.000
    6.7934      316.000      310.000      266.000      280.000      301.000
    6.9248      278.000      260.000      299.000      256.000      268.000
    7.0561      268.000      277.000      293.000      292.000      246.000
    7.1874      281.000      280.000      272.000      316.000      272.000
    7.3187      305.000      290.000      253.000      264.000      299.000
    7.4500      250.000      272.000      269.000      282.000      257.000
    7.5813      274.000      287.000      267.000      277.000      251.000
    7.7126      243.000      248.000      250.000      250.000      251.000
    7.8439      252.000      244.000      249.000      255.000      262.000
    7.9752      242.000      279.000      258.000      280.000      250.000
    8.1065      272.000      246.000      265.000      263.000      248.000
    8.2378      245.000      217.000      290.000      236.000      253.000
    8.3691      248.000      263.000      258.000      251.000      228.000
    8.5004      262.000      240.000      264.000      235.000      249.000
    8.6317      251.000      257.000      240.000      237.000      245.000
    8.7630      217.000      221.000      224.000      226.000      208.000
    8.8943      238.000      232.000      214.000      234.000      209.000
    9.0256      220.000      213.000      202.000      235.000      216.000
    9.1569      268.000      217.000      240.000      226.000      235.000
    9.2882      243.000      207.000      204.000      203.000      228.000
    9.4195      211.000      186.000      203.000      198.000      192.000
    9.5508      184.000      209.000      248.000      195.000      186.000
    9.6821      209.000      210.000      199.000      222.000      212.000
    9.8134      223.000      223.000      198.000      196.000      187.000
    9.9447      203.000      193.000      188.000      202.000      192.000
   10.0760      197.000      217.000      205.000      192.000      194.000
   10.2073      188.000      177.000      218.000      212.000      202.000
   10.3386      190.000      197.000      191.000      192.000      193.000
   10.4699      216.000      212.000      179.000      217.000      213.000
   10.6012      195.000      188.000      180.000      199.000      193.000
   10.7325      196.000      187.000      209.000      199.000      178.000
   10.8638      188.000      195.000      191.000      191.000      180.000
   10.9951      238.000      206.000      187.000      215.000      189.000
   11.1264      177.000      151.000      221.000      183.000      207.000
   11.2577      186.000      211.000      160.000      188.000      190.000
   11.3890      190.000      186.000      185.000      179.000      199.000
   11.5203      183.000      193.000      164.000      194.000      178.000
   11.6517      226.000      226.000      233.000      252.000      242.000
   11.7830      243.000      209.000      209.000      219.000      166.000
   11.9143      173.000      174.000      165.000      163.000      198.000
   12.0456      165.000      205.000      192.000      189.000      185.000
   12.1769      208.000      189.000      181.000      205.000      181.000
   12.3082      192.000      182.000      179.000      168.000      163.000
   12.4395      157.000      178.000      157.000      175.000      169.000
   12.5708      153.000      158.000      170.000      178.000      184.000
   12.7021      167.000      142.000      152.000      153.000      148.000
   12.8334      156.000      156.000      146.000      170.000      141.000
   12.9647      188.000      154.000      171.000      145.000      138.000
   13.0960      152.000      129.000      149.000      163.000      135.000
   13.2273      161.000      164.000      153.000      166.000      133.000
   13.3586      170.000      146.000      159.000      171.000      138.000
   13.4899      130.000      127.000      141.000      142.000      137.000
   13.6212      138.000      154.000      158.000      147.000      146.000
   13.7525      146.000      159.000      145.000      152.000      148.000
   13.8838      142.000      130.000      140.000      142.000      149.000
   14.0151      152.000      144.000      153.000      117.000      138.000
   14.1464      133.000      129.000      144.000      145.000      146.000
   14.2777      134.000      156.000      122.000      147.000      133.000
   14.4090      128.000      129.000      150.000      123.000      135.000
   14.5403      132.000      126.000      144.000      154.000      127.000
   14.6716      135.000      138.000      134.000      149.000      135.000
   14.8029      148.000      141.000      126.000      144.000      116.000
   14.9342      135.000      157.000      136.000      184.000      149.000
   15.0655      147.000      138.000      132.000      131.000      139.000
   15.1968      138.000      131.000      137.000      151.000      106.000
   15.3281      144.000      134.000      116.000      142.000      110.000
   15.4594      118.000      124.000      138.000      131.000      136.000
   15.5907      131.000      122.000      142.000      126.000      105.000
   15.7220      142.000      124.000      124.000      128.000      124.000
   15.8533      113.000      117.000      120.000      120.000      104.000
   15.9846      130.000      129.000      137.000      119.000      118.000
   16.1159      113.000      124.000      143.000       92.000      106.000
   16.2473      124.000      121.000      120.000      140.000      148.000
   16.3786      104.000      125.000      117.000      119.000      125.000
   16.5099      125.000      117.000      109.000      135.000      114.000
   16.6412      111.000      110.000      112.000      107.000      109.000
   16.7725      101.000      105.000      108.000      104.000      105.000
   16.9038      124.000      109.000      116.000      106.000      107.000
   17.0351      120.000      107.000      121.000      104.000      103.000
   17.1664      110.000      132.000       96.000      112.000      100.000
   17.2977      125.000      105.000      114.000      110.000      104.000
   17.4290      122.000      104.000      124.000      123.000       89.000
   17.5603      105.000      115.000      109.000      115.000      115.000
   17.6916      102.000      106.000      108.000      117.000      114.000
   17.8229      123.000      111.000      119.000      110.000      110.000
   17.9542      113.000       90.000      111.000      115.000      118.000
   18.0855      111.000      115.000      130.000       92.000      120.000
   18.2168      119.000      104.000       98.000      113.000      110.000
   18.3481       91.000      105.000      105.000      102.000      106.000
   18.4794       96.000      122.000       96.000       98.000       96.000
   18.6107      106.000      111.000      108.000      104.000       89.000
   18.7420       83.000      108.000       99.000      105.000      120.000
   18.8733      110.000       93.000       96.000      103.000      110.000
   19.0046      110.000       97.000      108.000      108.000       89.000
   19.1359       94.000       94.000       83.000       89.000       99.000
   19.2672      101.000      101.000      103.000       94.000      103.000
   19.3985       89.000       92.000       86.000       84.000       79.000
   19.5298      108.000       86.000       94.000       91.000       98.000
   19.6611       85.000       71.000       89.000       76.000       87.000
   19.7924       91.000       80.000       88.000      114.000       87.000
   19.9237       77.000       87.000       93.000       93.000       90.000
   20.0550       77.000      116.000      101.000       98.000       87.000
   20.1863       99.000       80.000       76.000       79.000       97.000
   20.3176       90.000       93.000       92.000       77.000       90.000
   20.4489       67.000       77.000       81.000       93.000       84.000
   20.5802      115.000       86.000       74.000      109.000       94.000
   20.7115       91.000      120.000      110.000      135.000      120.000
   20.8428      140.000      134.000      119.000       94.000      128.000
   20.9742      108.000       84.000       85.000       89.000       97.000
   21.1055       99.000       91.000       79.000      103.000       95.000
   21.2368       75.000       88.000       71.000       97.000       80.000
   21.3681       79.000       85.000       78.000       81.000       85.000
   21.4994       67.000       94.000       67.000       65.000       76.000
   21.6307       82.000       95.000       84.000       69.000       86.000
   21.7620       81.000       86.000       96.000       83.000       76.000
   21.8933       91.000      109.000       76.000       74.000       70.000
   22.0246       76.000       64.000       65.000       86.000       80.000
   22.1559       84.000       87.000       82.000       71.000       80.000
   22.2872       81.000       68.000       87.000       89.000       81.000
   22.4185       85.000       78.000       62.000       72.000       79.000
   22.5498       82.000       79.000       75.000       76.000       76.000
   22.6811       76.000       75.000       70.000       59.000       90.000
   22.8124       76.000       73.000       80.000       88.000       91.000
   22.9437       84.000       99.000      101.000      107.000      125.000
   23.0750      113.000      107.000      111.000      121.000      119.000
   23.2063      112.000      106.000       97.000      102.000       90.000
   23.3376       78.000       77.000       92.000       85.000       93.000
   23.4689       86.000       83.000       99.000       73.000       81.000
   23.6002       74.000       73.000       76.000       63.000       78.000
   23.7315       74.000       73.000       56.000       77.000       71.000
   23.8628       82.000       65.000       92.000       72.000       75.000
   23.9941       70.000       84.000       75.000       68.000       59.000
   24.1254       76.000       68.000       69.000       84.000       67.000
   24.2567       66.000       50.000       87.000       71.000       78.000
   24.3880       62.000       79.000      101.000       85.000       79.000
   24.5193       74.000       94.000       86.000       72.000       87.000
   24.6506       67.000       82.000       67.000       60.000       66.000
   24.7819       69.000       66.000       65.000       68.000       83.000
   24.9132       78.000       63.000       66.000       61.000       59.000
   25.0445       68.000       64.000       67.000       94.000       76.000
   25.1758       65.000       59.000       70.000       64.000       76.000
   25.3071       78.000       94.000       84.000       79.000       73.000
   25.4384       79.000       62.000       72.000       66.000       74.000
   25.5698       54.000       63.000       70.000       55.000       52.000
   25.7011       71.000       64.000       62.000       58.000       62.000
   25.8324       58.000       81.000       54.000       79.000       72.000
   25.9637       55.000       56.000       67.000       72.000       78.000
   26.0950       76.000       68.000       78.000       66.000       77.000
   26.2263       74.000       79.000       77.000       63.000       80.000
   26.3576       68.000       65.000       74.000       72.000       94.000
   26.4889      103.000       72.000       77.000       78.000       77.000
   26.6202       73.000       93.000       90.000      112.000      147.000
   26.7515      111.000       91.000       99.000       91.000       60.000
   26.8828       67.000       57.000       63.000       73.000       70.000
   27.0141       54.000       72.000       59.000       51.000       51.000
   27.1454       61.000       65.000       72.000       78.000       68.000
   27.2767       65.000       56.000       62.000       60.000       63.000
   27.4080       50.000       71.000       62.000       70.000       70.000
   27.5393       77.000       77.000       65.000       75.000       71.000
   27.6706       76.000       80.000       61.000       62.000       64.000
   27.8019       60.000       62.000       67.000       81.000       70.000
   27.9332       75.000       77.000       74.000       76.000       72.000
   28.0645       95.000       68.000       86.000       59.000       74.000
   28.1958       68.000       78.000       65.000       71.000       55.000
   28.3271       66.000       66.000       67.000       59.000       75.000
   28.4584       61.000       63.000       66.000       61.000       69.000
   28.5897       60.000       72.000       60.000       73.000       60.000
   28.7210       77.000       73.000       52.000       70.000       69.000
   28.8523       71.000       77.000       69.000       70.000       81.000
   28.9836       77.000       76.000       78.000       82.000       70.000
   29.1149       98.000       94.000       90.000      121.000      128.000
   29.2462      134.000      140.000      131.000      142.000      166.000
   29.3775      179.000      203.000      289.000      369.000      575.000
   29.5088      637.000      724.000      735.000      650.000      536.000
   29.6401      430.000      342.000      221.000      183.000      131.000
   29.7714      114.000       97.000       91.000       91.000       78.000
   29.9027       79.000       75.000       90.000       93.000       79.000
   30.0340       83.000       72.000       89.000       87.000      113.000
   30.1654      117.000      136.000      128.000      137.000      136.000
   30.2967      119.000      116.000       75.000       87.000       68.000
   30.4280       81.000       72.000       67.000       69.000       61.000
   30.5593       53.000       52.000       50.000       65.000       65.000
   30.6906       57.000       57.000       59.000       77.000       53.000
   30.8219       60.000       61.000       67.000       66.000       69.000
   30.9532       65.000       75.000       77.000       86.000       78.000
   31.0845       83.000       85.000       92.000       81.000       90.000
   31.2158       77.000       70.000       74.000      100.000       78.000
   31.3471       57.000       66.000       76.000       59.000       64.000
   31.4784       63.000       72.000       71.000       66.000       76.000
   31.6097       73.000       72.000       84.000       73.000       64.000
   31.7410       65.000       66.000       77.000       74.000       79.000
   31.8723       73.000       78.000       81.000       72.000       83.000
   32.0036       68.000       77.000      112.000       99.000      124.000
   32.1349      132.000      162.000      190.000      195.000      250.000
   32.2662      251.000      372.000      441.000      566.000      562.000
   32.3975      450.000      355.000      328.000      235.000      182.000
   32.5288      189.000      177.000      217.000      251.000      298.000
   32.6601      319.000      355.000      379.000      371.000      361.000
   32.7914      350.000      292.000      214.000      178.000      156.000
   32.9227      129.000      109.000       95.000       85.000      113.000
   33.0540      109.000       84.000      110.000      108.000      101.000
   33.1853      112.000      114.000      121.000      137.000      145.000
   33.3166      141.000      143.000      162.000      153.000      126.000
   33.4479      119.000      129.000      127.000      109.000       99.000
   33.5792      114.000       94.000      100.000      104.000      100.000
   33.7105       82.000       93.000      101.000       99.000      111.000
   33.8418      102.000      126.000      140.000      151.000      138.000
   33.9731      135.000      148.000      128.000      155.000      118.000
   34.1044      142.000      117.000      103.000      104.000       72.000
   34.2357      115.000       88.000      125.000      116.000      137.000
   34.3670      159.000      199.000      231.000      338.000      378.000
   34.4983      465.000      471.000      363.000      340.000      249.000
   34.6296      189.000      155.000      102.000       83.000       72.000
   34.7609       79.000       55.000       66.000       60.000       65.000
   34.8923       65.000       60.000       66.000       56.000       49.000
   35.0236       48.000       49.000       49.000       47.000       45.000
   35.1549       47.000       39.000       59.000       50.000       65.000
   35.2862       65.000       62.000       57.000       41.000       58.000
   35.4175       69.000       70.000       45.000       45.000       59.000
   35.5488       36.000       47.000       36.000       63.000       45.000
   35.6801       41.000       56.000       62.000       44.000       44.000
   35.8114       56.000       51.000       53.000       51.000       65.000
   35.9427       49.000       57.000       71.000       87.000       80.000
   36.0740      103.000      131.000       92.000      103.000       92.000
   36.2053       59.000       63.000       58.000       50.000       32.000
   36.3366       53.000       50.000       49.000       43.000       37.000
   36.4679       48.000       41.000       55.000       54.000       53.000
   36.5992       48.000       62.000       41.000       68.000       62.000
   36.7305       64.000       79.000       75.000       99.000       87.000
   36.8618      118.000       90.000       83.000       77.000       63.000
   36.9931       82.000       52.000       49.000       49.000       53.000
   37.1244       49.000       52.000       40.000       43.000       43.000
   37.2557       56.000       50.000       51.000       44.000       47.000
   37.3870       49.000       43.000       51.000       40.000       43.000
   37.5183       63.000       59.000       44.000       38.000       36.000
   37.6496       41.000       46.000       44.000       44.000       49.000
   37.7809       53.000       50.000       40.000       53.000       37.000
   37.9122       38.000       50.000       43.000       60.000       39.000
   38.0435       43.000       52.000       43.000       45.000       43.000
   38.1748       64.000       53.000       39.000       40.000       58.000
   38.3061       43.000       48.000       48.000       31.000       31.000
   38.4374       46.000       51.000       38.000       44.000       43.000
   38.5687       35.000       48.000       39.000       38.000       46.000
   38.7000       38.000       54.000       49.000       73.000       76.000
   38.8313       77.000      103.000       96.000      116.000       90.000
   38.9626       90.000       97.000       84.000       83.000       75.000
   39.0939       75.000       72.000       58.000       65.000       59.000
   39.2252       60.000       51.000       69.000       62.000       62.000
   39.3565       62.000       62.000       83.000       85.000       83.000
   39.4879       96.000      118.000      114.000      100.000      133.000
   39.6192      105.000       98.000       69.000       78.000       52.000
   39.7505       58.000       66.000       59.000       50.000       50.000
   39.8818       38.000       38.000       48.000       34.000       38.000
   40.0131       38.000       56.000       37.000       43.000       44.000
   40.1444       43.000       54.000       41.000       37.000       32.000
   40.2757       45.000       57.000       51.000       46.000       42.000
   40.4070       34.000       40.000       47.000       41.000       49.000
   40.5383       48.000       44.000       56.000       50.000       47.000
   40.6696       44.000       47.000       49.000       58.000       43.000
   40.8009       46.000       54.000       41.000       57.000       59.000
   40.9322       45.000       53.000       46.000       78.000       66.000
   41.0635       69.000       58.000       83.000       58.000       83.000
   41.1948       69.000       82.000       73.000       98.000      100.000
   41.3261      124.000      170.000      170.000      231.000      253.000
   41.4574      263.000      247.000      242.000      203.000      168.000
   41.5887      140.000      109.000       87.000       81.000       65.000
   41.7200       92.000       89.000       82.000       96.000       78.000
   41.8513       73.000       78.000       89.000       64.000       57.000
   41.9826       56.000       57.000       55.000       68.000       48.000
   42.1139       44.000       46.000       44.000       43.000       48.000
   42.2452       57.000       42.000       46.000       40.000       46.000
   42.3765       51.000       37.000       40.000       33.000       49.000
   42.5078       42.000       55.000       41.000       54.000       41.000
   42.6391       44.000       41.000       28.000       50.000       36.000
   42.7704       36.000       32.000       43.000       53.000       63.000
   42.9017       50.000       52.000       59.000       65.000       59.000
   43.0330       88.000       75.000       74.000       83.000       68.000
   43.1643       66.000       69.000       72.000       90.000      115.000
   43.2956      123.000       98.000      103.000       98.000       90.000
   43.4269       99.000       71.000       73.000       51.000       54.000
   43.5582       64.000       53.000       48.000       47.000       52.000
   43.6895       50.000       53.000       43.000       57.000       36.000
   43.8208       49.000       56.000       57.000       48.000       52.000
   43.9521       54.000       55.000       41.000       48.000       55.000
   44.0835       61.000       67.000       43.000       57.000       72.000
   44.2148       61.000       60.000       46.000       65.000       67.000
   44.3461       51.000       57.000       52.000       57.000       63.000
   44.4774       32.000       45.000       53.000       35.000       40.000
   44.6087       53.000       48.000       44.000       55.000       55.000
   44.7400       41.000       41.000       44.000       44.000       52.000
   44.8713       40.000       48.000       40.000       47.000       30.000
   45.0026       46.000       44.000       44.000       38.000       45.000
   45.1339       31.000       33.000       28.000       40.000       39.000
   45.2652       36.000       50.000       27.000       40.000       30.000
   45.3965       39.000       40.000       43.000       30.000       41.000
   45.5278       47.000       39.000       37.000       48.000       48.000
   45.6591       45.000       36.000       47.000       48.000       41.000
   45.7904       46.000       58.000       62.000       67.000       56.000
   45.9217       64.000       68.000       66.000       74.000       70.000
   46.0530       56.000       69.000       56.000       53.000       41.000
   46.1843       53.000       61.000       38.000       42.000       54.000
   46.3156       36.000       53.000       34.000       24.000       37.000
   46.4469       47.000       34.000       40.000       44.000       35.000
   46.5782       45.000       49.000       40.000       51.000       44.000
   46.7095       47.000       49.000       33.000       41.000       52.000
   46.8408       47.000       52.000       39.000       54.000       63.000
   46.9721       74.000       80.000       81.000       66.000      107.000
   47.1034      112.000       88.000       93.000       99.000       88.000
   47.2347       81.000       80.000       88.000       75.000       87.000
   47.3660       98.000       91.000       78.000       98.000       88.000
   47.4973       90.000       78.000       89.000       92.000      109.000
   47.6286      117.000      132.000      121.000       96.000       93.000
   47.7599       86.000       77.000       77.000       68.000       60.000
   47.8912       63.000       53.000       60.000       52.000       61.000
   48.0225       45.000       50.000       47.000       48.000       47.000
   48.1538       45.000       41.000       55.000       38.000       51.000
   48.2851       38.000       34.000       46.000       45.000       41.000
   48.4164       60.000       53.000       65.000       52.000       49.000
   48.5477       73.000       78.000       93.000       79.000      111.000
   48.6790      105.000       92.000       79.000       64.000       71.000
   48.8104       55.000       50.000       47.000       53.000       44.000
   48.9417       38.000       46.000       52.000       34.000       47.000
   49.0730       54.000       49.000       49.000       47.000       49.000
   49.2043       44.000       34.000       44.000       44.000       46.000
   49.3356       49.000       40.000       53.000       44.000       36.000
   49.4669       39.000       50.000       45.000       41.000       43.000
   49.5982       49.000       34.000       51.000       34.000       49.000
   49.7295       69.000       51.000       74.000       54.000       74.000
   49.8608       43.000       47.000       69.000       51.000       41.000
   49.9921       61.000       58.000       69.000       67.000       74.000
   50.1234       60.000       60.000       69.000       58.000       62.000
   50.2547       63.000       48.000       42.000       45.000       41.000
   50.3860       37.000       40.000       40.000       46.000       40.000
   50.5173       45.000       55.000       51.000       54.000       44.000
   50.6486       32.000       55.000       51.000       45.000       44.000
   50.7799       40.000       44.000       36.000       50.000       45.000
   50.9112       34.000       38.000       44.000       42.000       45.000
   51.0425       34.000       50.000       44.000       42.000       46.000
   51.1738       44.000       46.000       39.000       44.000       34.000
   51.3051       45.000       44.000       26.000       43.000       42.000
   51.4364       37.000       40.000       36.000       44.000       47.000
   51.5677       37.000       39.000       32.000       73.000       56.000
   51.6990       71.000       82.000       88.000      107.000      184.000
   51.8303      205.000      225.000      182.000      205.000      184.000
   51.9616      213.000      186.000      186.000      156.000      131.000
   52.0929      108.000      114.000       86.000       78.000       83.000
   52.2242       64.000       61.000       43.000       40.000       40.000
   52.3555       38.000       23.000       36.000       31.000       40.000
   52.4868       35.000       41.000       35.000       32.000       37.000
   52.6181       37.000       32.000       34.000       35.000       24.000
   52.7494       27.000       21.000       37.000       39.000       28.000
   52.8807       36.000       39.000       32.000       31.000       45.000
   53.0120       21.000       28.000       38.000       38.000       38.000
   53.1433       38.000       29.000       33.000       48.000       34.000
   53.2746       42.000       35.000       43.000       52.000       37.000
   53.4060       33.000       40.000       41.000       33.000       49.000
   53.5373       38.000       36.000       30.000       36.000       34.000
   53.6686       25.000       49.000       33.000       28.000       31.000
   53.7999       30.000       32.000       41.000       34.000       38.000
   53.9312       35.000       42.000       25.000       36.000       43.000
   54.0625       42.000       29.000       39.000       40.000       50.000
   54.1938       46.000       37.000       48.000       49.000       43.000
   54.3251       37.000       49.000       31.000       22.000       46.000
   54.4564       38.000       31.000       47.000       41.000       49.000
   54.5877       49.000       33.000       28.000       28.000       29.000
   54.7190       33.000       37.000       28.000       23.000       27.000
   54.8503       47.000       34.000       32.000       39.000       31.000
   54.9816       38.000       30.000       37.000       29.000       28.000
   55.1129       31.000       34.000       35.000       42.000       44.000
   55.2442       28.000       29.000       33.000       24.000       28.000
   55.3755       27.000       35.000       36.000       32.000       36.000
   55.5068       43.000       31.000       40.000       32.000       36.000
   55.6381       33.000       28.000       31.000       43.000       35.000
   55.7694       31.000       22.000       35.000       31.000       21.000
   55.9007       38.000       35.000       45.000       37.000       41.000
   56.0320       34.000       43.000       51.000       56.000       46.000
   56.1633       34.000       52.000       42.000       42.000       38.000
   56.2946       37.000       39.000       49.000       43.000       53.000
   56.4259       55.000       49.000       67.000       67.000       91.000
   56.5572       77.000       99.000      108.000      107.000      114.000
   56.6885      126.000      129.000      124.000      104.000       99.000
   56.8198       75.000       86.000       71.000       74.000       64.000
   56.9511       43.000       41.000       38.000       44.000       38.000
   57.0824       41.000       39.000       42.000       33.000       47.000
   57.2137       56.000       33.000       33.000       35.000       24.000
   57.3450       46.000       35.000       46.000       46.000       34.000
   57.4763       53.000       58.000       72.000       57.000       64.000
   57.6076       57.000       54.000       56.000       47.000       48.000
   57.7389       41.000       48.000       55.000       54.000       31.000
   57.8702       50.000       47.000       40.000       41.000       42.000
   58.0015       40.000       27.000       49.000       44.000       37.000
   58.1329       40.000       34.000       51.000       40.000       37.000
   58.2642       35.000       45.000       38.000       40.000       39.000
   58.3955       47.000       40.000       33.000       25.000       35.000
   58.5268       25.000       40.000       36.000       50.000       48.000
   58.6581       45.000       53.000       36.000       52.000       53.000
   58.7894       39.000       50.000       46.000       32.000       37.000
   58.9207       48.000       36.000       42.000       46.000       47.000
   59.0520       41.000       45.000       43.000       39.000       39.000
   59.1833       48.000       44.000       39.000       38.000       33.000
   59.3146       31.000       52.000       47.000       48.000       36.000
   59.4459       42.000       53.000       44.000       40.000       44.000
   59.5772       43.000       42.000       43.000       55.000       47.000
   59.7085       37.000       48.000       57.000       41.000       46.000
   59.8398       41.000       39.000       40.000       43.000       56.000
   59.9711       66.000       58.000       62.000       83.000      122.000
   60.1024      104.000      121.000       95.000      104.000       79.000
   60.2337       82.000       78.000       85.000       64.000       59.000
   60.3650       58.000       51.000       44.000       37.000       47.000
   60.4963       39.000       40.000       46.000       44.000       45.000
   60.6276       43.000       32.000       42.000       54.000       45.000
   60.7589       48.000       65.000       63.000       66.000       57.000
   60.8902       53.000       53.000       49.000       53.000       42.000
   61.0215       57.000       46.000       48.000       48.000       39.000
   61.1528       54.000       37.000       34.000       45.000       39.000
   61.2841       29.000       45.000       37.000       37.000       37.000
   61.4154       49.000       50.000       37.000       39.000       38.000
   61.5467       45.000       48.000       23.000       34.000       23.000
   61.6780       37.000       32.000       31.000       39.000       37.000
   61.8093       29.000       38.000       24.000       31.000       27.000
   61.9406       33.000       45.000       38.000       34.000       33.000
   62.0719       42.000       28.000       31.000       36.000       38.000
   62.2032       53.000       45.000       55.000       78.000       83.000
   62.3345      105.000      123.000      106.000      144.000      142.000
   62.4658      132.000      148.000      137.000      150.000      129.000
   62.5971      127.000      121.000      113.000       92.000       79.000
   62.7285       87.000       89.000      103.000       74.000       60.000
   62.8598       56.000       38.000       38.000       48.000       46.000
   62.9911       41.000       33.000       44.000       35.000       45.000
   63.1224       44.000       34.000       30.000       41.000       40.000
   63.2537       50.000       41.000       43.000       45.000       38.000
   63.3850       41.000       28.000       42.000       32.000       36.000
   63.5163       35.000       36.000       45.000       43.000       44.000
   63.6476       52.000       39.000       38.000       44.000       54.000
   63.7789       52.000       61.000       54.000       68.000       61.000
   63.9102       55.000       59.000       49.000       65.000       48.000
   64.0415       54.000       49.000       41.000       38.000       35.000
   64.1728       33.000       51.000       35.000       41.000       35.000
   64.3041       31.000       34.000       34.000       40.000       32.000
   64.4354       33.000       35.000       29.000       39.000       30.000
   64.5667       37.000       32.000       38.000       35.000       34.000
   64.6980       31.000       52.000       40.000       35.000       40.000
   64.8293       43.000       55.000       45.000       23.000       45.000
   64.9606       32.000       36.000       37.000       39.000       43.000
   65.0919       31.000       31.000       30.000       37.000       29.000
   65.2232       42.000       27.000       35.000       33.000       31.000
   65.3545       30.000       35.000       19.000       29.000       26.000
   65.4858       34.000       41.000       33.000       40.000       30.000
   65.6171       37.000       34.000       33.000       38.000       37.000
   65.7484       40.000       38.000       42.000       25.000       37.000
   65.8797       37.000       42.000       45.000       32.000       28.000
   66.0110       27.000       27.000       34.000       33.000       35.000
   66.1423       27.000       36.000       20.000       34.000       28.000
   66.2736       28.000       31.000       35.000       26.000       33.000
   66.4049       34.000       23.000       30.000       35.000       22.000
   66.5362       37.000       34.000       35.000       27.000       26.000
   66.6675       37.000       39.000       22.000       38.000       33.000
   66.7988       32.000       20.000       28.000       32.000       35.000
   66.9301       35.000       27.000       34.000       35.000       26.000
   67.0614       30.000       33.000       38.000       36.000       28.000
   67.1927       22.000       32.000       31.000       47.000       29.000
   67.3241       39.000       29.000       40.000       32.000       39.000
   67.4554       31.000       43.000       52.000       59.000       39.000
   67.5867       42.000       38.000       39.000       40.000       38.000
   67.7180       30.000       44.000       43.000       30.000       42.000
   67.8493       27.000       28.000       28.000       30.000       24.000
   67.9806       25.000       27.000       22.000       21.000       22.000
   68.1119       26.000       50.000       29.000       31.000       30.000
   68.2432       28.000       43.000       35.000       33.000       34.000
   68.3745       40.000       38.000       39.000       36.000       38.000
   68.5058       35.000       56.000       37.000       43.000       42.000
   68.6371       31.000       36.000       28.000       38.000       28.000
   68.7684       37.000       28.000       32.000       42.000       40.000
   68.8997       38.000       35.000       28.000       38.000       24.000
   69.0310       36.000       34.000       36.000       34.000       28.000
   69.1623       31.000       34.000       28.000       25.000       38.000
   69.2936       42.000       29.000       33.000       31.000       36.000
   69.4249       29.000       29.000       37.000       27.000       24.000
   69.5562       33.000       32.000       28.000       39.000       38.000
   69.6875       32.000       29.000       30.000       36.000       30.000
   69.8188       28.000       27.000       29.000       40.000       36.000
   69.9501       34.000       28.000       29.000       32.000       27.000
   70.0814       26.000       30.000       20.000       20.000       21.000
   70.2127       34.000       34.000       30.000       35.000       35.000
   70.3440       38.000       27.000       41.000       19.000       39.000
   70.4753       26.000       32.000       40.000       32.000       33.000
   70.6066       32.000       30.000       30.000       30.000       23.000
   70.7379       39.000       32.000       28.000       33.000       27.000
   70.8692       29.000       30.000       27.000       25.000       38.000
   71.0005       28.000       25.000       33.000       29.000       34.000
   71.1318       27.000       29.000       25.000       28.000       38.000
   71.2631       28.000       32.000       41.000       23.000       26.000
   71.3944       42.000       38.000       29.000       31.000       38.000
   71.5257       43.000       39.000       45.000       31.000       37.000
   71.6570       28.000       27.000       27.000       24.000       34.000
   71.7883       29.000       35.000       34.000       38.000       37.000
   71.9196       27.000       41.000       30.000       22.000       27.000
   72.0510       33.000       25.000       27.000       30.000       36.000
   72.1823       29.000       26.000       19.000       19.000       16.000
   72.3136       26.000       27.000       31.000       29.000       30.000
   72.4449       20.000       33.000       28.000       41.000       30.000
   72.5762       36.000       37.000       26.000       39.000       23.000
   72.7075       28.000       27.000       29.000       30.000       30.000
   72.8388       29.000       31.000       28.000       22.000       23.000
   72.9701       28.000       29.000       34.000       30.000       34.000
   73.1014       23.000       27.000       20.000       24.000       29.000
   73.2327       33.000       28.000       25.000       34.000       31.000
   73.3640       24.000       32.000       25.000       24.000       18.000
   73.4953       24.000       24.000       36.000       34.000       28.000
   73.6266       24.000       25.000       32.000       11.000       27.000
   73.7579       33.000       22.000       30.000       17.000       27.000
   73.8892       26.000       27.000       21.000       26.000       30.000
   74.0205       25.000       32.000       21.000       23.000       25.000
   74.1518       27.000       19.000       24.000       28.000       20.000
   74.2831       21.000       23.000       27.000       31.000       32.000
   74.4144       29.000       28.000       18.000       21.000       22.000
   74.5457       33.000       33.000       21.000       24.000       27.000
   74.6770       23.000       25.000       22.000       35.000       25.000
   74.8083       21.000       26.000       24.000       36.000       26.000
   74.9396       23.000       26.000       24.000       18.000       21.000
   75.0709       24.000       27.000       27.000       31.000       24.000
   75.2022       31.000       25.000       23.000       21.000       28.000
   75.3335       26.000       29.000       17.000       27.000       26.000
   75.4648       26.000       39.000       29.000       26.000       15.000
   75.5961       26.000       22.000       20.000       26.000       26.000
   75.7274       33.000       34.000       24.000       24.000       33.000
   75.8587       27.000       25.000       23.000       32.000       28.000
   75.9900       23.000       28.000       19.000       27.000       17.000
   76.1213       13.000       32.000       27.000       35.000       23.000
   76.2526       32.000       23.000       21.000       26.000       24.000
   76.3839       27.000       22.000       21.000       26.000       29.000
   76.5152       30.000       27.000       25.000       27.000       32.000
   76.6466       24.000       22.000       32.000       26.000       25.000
   76.7779       30.000       15.000       29.000       18.000       28.000
   76.9092       21.000       25.000       29.000       17.000       27.000
   77.0405       32.000       19.000       30.000       32.000       34.000
   77.1718       25.000       25.000       22.000       27.000       32.000
   77.3031       27.000       41.000       20.000       26.000       25.000
   77.4344       25.000       22.000       27.000       22.000       31.000
   77.5657       28.000       31.000       26.000       26.000       18.000
   77.6970       15.000       24.000       26.000       25.000       23.000
   77.8283       21.000       37.000       25.000       21.000       31.000
   77.9596       28.000       25.000       32.000       25.000       26.000
   78.0909       24.000       22.000       34.000       28.000       24.000
   78.2222       33.000       19.000       27.000       22.000       26.000
   78.3535       32.000       19.000       32.000       31.000       28.000
   78.4848       27.000       20.000       28.000       23.000       18.000
   78.6161       29.000       29.000       30.000       23.000       22.000
   78.7474       29.000       26.000       29.000       21.000       41.000
   78.8787       31.000       22.000       30.000       24.000       24.000
   79.0100       36.000       25.000       26.000       27.000       36.000
   79.1413       39.000       25.000       32.000       23.000       27.000
   79.2726       35.000       27.000       31.000       26.000       29.000
   79.4039       38.000       38.000       24.000       32.000       32.000
   79.5352       24.000       38.000       32.000       33.000       29.000
   79.6665       29.000       33.000       32.000       40.000       27.000
   79.7978       28.000       34.000       21.000       39.000       31.000
   79.9291       27.000       37.000       39.000       34.000       40.000
   80.0604       27.000       34.000       19.000       30.000       47.000
   80.1917       30.000       45.000       36.000       30.000       39.000
   80.3230       30.000       28.000       34.000       36.000       33.000
   80.4543       34.000       14.000       42.000       23.000       32.000
   80.5856       26.000       22.000       30.000       31.000       24.000
   80.7169       29.000       27.000       18.000       32.000       25.000
   80.8482       29.000       31.000       22.000       35.000       26.000
   80.9795       24.000       20.000       18.000       31.000       34.000
   81.1108       26.000       30.000       19.000       30.000       28.000
   81.2422       25.000       27.000       36.000       31.000       31.000
   81.3735       27.000       23.000       32.000       29.000       35.000
   81.5048       29.000       38.000       19.000       19.000       33.000
   81.6361       30.000       24.000       35.000       25.000       28.000
   81.7674       26.000       26.000       36.000       41.000       30.000
   81.8987       41.000       22.000       30.000       25.000       27.000
   82.0300       34.000       31.000       33.000       29.000       40.000
   82.1613       30.000       38.000       28.000       29.000       37.000
   82.2926       30.000       27.000       32.000       31.000       28.000
   82.4239       33.000       27.000       26.000       15.000       27.000
   82.5552       30.000       29.000       28.000       21.000       34.000
   82.6865       33.000       15.000       28.000       29.000       26.000
   82.8178       25.000       26.000       19.000       35.000       28.000
   82.9491       26.000       25.000       24.000       31.000       34.000
   83.0804       26.000       35.000       23.000       31.000       32.000
   83.2117       27.000       31.000       36.000       29.000       30.000
   83.3430       40.000       40.000       35.000       35.000       34.000
   83.4743       32.000       31.000       50.000       42.000       39.000
   83.6056       29.000       43.000       34.000       47.000       54.000
   83.7369       34.000       34.000       36.000       38.000       30.000
   83.8682       35.000       30.000       38.000       41.000       42.000
   83.9995       31.000       38.000       45.000       52.000       39.000
   84.1308       30.000       34.000       40.000       36.000       30.000
   84.2621       35.000       36.000       21.000       29.000       38.000
   84.3934       24.000       39.000       36.000       31.000       26.000
   84.5247       32.000       32.000       40.000       19.000       26.000
   84.6560       27.000       33.000       33.000       38.000       33.000
   84.7873       32.000       23.000       38.000       36.000       30.000
   84.9186       23.000       34.000       41.000       21.000       32.000
   85.0499       30.000       28.000       35.000       34.000       35.000
   85.1812       30.000       33.000       39.000       30.000       40.000
   85.3125       48.000       40.000       35.000       36.000       27.000
   85.4438       35.000       35.000       30.000       45.000       52.000
   85.5751       39.000       51.000       37.000       43.000       39.000
   85.7064       39.000       34.000       39.000       39.000       34.000
   85.8377       45.000       42.000       37.000       32.000       33.000
   85.9691       35.000       29.000       25.000       38.000       28.000
   86.1004       33.000       23.000       35.000       37.000       21.000
   86.2317       36.000       29.000       36.000       30.000       42.000
   86.3630       65.000       40.000       37.000       47.000       42.000
   86.4943       22.000       45.000       42.000       33.000       41.000
   86.6256       34.000       35.000       34.000       35.000       40.000
   86.7569       24.000       40.000       36.000       30.000       29.000
   86.8882       41.000       31.000       22.000       26.000       28.000
   87.0195       30.000       35.000       33.000       22.000       30.000
   87.1508       21.000       33.000       23.000       16.000       27.000
   87.2821       37.000       13.000       23.000       30.000       33.000
   87.4134       28.000       20.000       30.000       20.000       20.000
   87.5447       23.000       22.000       30.000       28.000       26.000
   87.6760       20.000       26.000       22.000       33.000       17.000
   87.8073       29.000       26.000       18.000       40.000       24.000
   87.9386       25.000       29.000       30.000       29.000       20.000
   88.0699       37.000       35.000       20.000       23.000       28.000
   88.2012       30.000       31.000       35.000       25.000       24.000
   88.3325       25.000       30.000       29.000       33.000       20.000
   88.4638       27.000       27.000       23.000       25.000       35.000
   88.5951       31.000       26.000       32.000       24.000       15.000
   88.7264       30.000       30.000       34.000       23.000       24.000
   88.8577       29.000       28.000       21.000       17.000       34.000
   88.9890       23.000       34.000       35.000       20.000       20.000
   89.1203       28.000       27.000       37.000       19.000       35.000
   89.2516       27.000       28.000       37.000       29.000       25.000
   89.3829       26.000       33.000       27.000       28.000       33.000
   89.5142       27.000       23.000       24.000       31.000       21.000
   89.6455       19.000       27.000       37.000       23.000       20.000
   89.7768       33.000       35.000       25.000       50.000       34.000
   89.9081       27.000       33.000       37.000       39.000
## END= 
