6.005630280 317.0
6.031890845 330.0
6.058151411 330.0
6.084411976 329.0
6.110672541 331.0
6.136933107 338.0
6.163193672 314.0
6.189454237 338.0
6.215714803 338.0
6.241975368 305.0
6.268235934 333.0
6.294496499 320.0
6.320757064 283.0
6.347017630 291.0
6.373278195 309.0
6.399538760 301.0
6.425799326 307.0
6.452059891 290.0
6.478320456 358.0
6.504581022 296.0
6.530841587 303.0
6.557102152 332.0
6.583362718 274.0
6.609623283 291.0
6.635883848 313.0
6.662144414 317.0
6.688404979 305.0
6.714665545 295.0
6.740926110 321.0
6.767186675 272.0
6.793447241 316.0
6.819707806 310.0
6.845968371 266.0
6.872228937 280.0
6.898489502 301.0
6.924750067 278.0
6.951010633 260.0
6.977271198 299.0
7.003531763 256.0
7.029792329 268.0
7.056052894 268.0
7.082313459 277.0
7.108574025 293.0
7.134834590 292.0
7.161095156 246.0
7.187355721 281.0
7.213616286 280.0
7.239876852 272.0
7.266137417 316.0
7.292397982 272.0
7.318658548 305.0
7.344919113 290.0
7.371179678 253.0
7.397440244 264.0
7.423700809 299.0
7.449961374 250.0
7.476221940 272.0
7.502482505 269.0
7.528743070 282.0
7.555003636 257.0
7.581264201 274.0
7.607524767 287.0
7.633785332 267.0
7.660045897 277.0
7.686306463 251.0
7.712567028 243.0
7.738827593 248.0
7.765088159 250.0
7.791348724 250.0
7.817609289 251.0
7.843869855 252.0
7.870130420 244.0
7.896390985 249.0
7.922651551 255.0
7.948912116 262.0
7.975172682 242.0
8.001433247 279.0
8.027693812 258.0
8.053954378 280.0
8.080214943 250.0
8.106475508 272.0
8.132736074 246.0
8.158996639 265.0
8.185257204 263.0
8.211517770 248.0
8.237778335 245.0
8.264038900 217.0
8.290299466 290.0
8.316560031 236.0
8.342820596 253.0
8.369081162 248.0
8.395341727 263.0
8.421602293 258.0
8.447862858 251.0
8.474123423 228.0
8.500383989 262.0
8.526644554 240.0
8.552905119 264.0
8.579165685 235.0
8.605426250 249.0
8.631686815 251.0
8.657947381 257.0
8.684207946 240.0
8.710468511 237.0
8.736729077 245.0
8.762989642 217.0
8.789250207 221.0
8.815510773 224.0
8.841771338 226.0
8.868031904 208.0
8.894292469 238.0
8.920553034 232.0
8.946813600 214.0
8.973074165 234.0
8.999334730 209.0
9.025595296 220.0
9.051855861 213.0
9.078116426 202.0
9.104376992 235.0
9.130637557 216.0
9.156898122 268.0
9.183158688 217.0
9.209419253 240.0
9.235679818 226.0
9.261940384 235.0
9.288200949 243.0
9.314461515 207.0
9.340722080 204.0
9.366982645 203.0
9.393243211 228.0
9.419503776 211.0
9.445764341 186.0
9.472024907 203.0
9.498285472 198.0
9.524546037 192.0
9.550806603 184.0
9.577067168 209.0
9.603327733 248.0
9.629588299 195.0
9.655848864 186.0
9.682109429 209.0
9.708369995 210.0
9.734630560 199.0
9.760891126 222.0
9.787151691 212.0
9.813412256 223.0
9.839672822 223.0
9.865933387 198.0
9.892193952 196.0
9.918454518 187.0
9.944715083 203.0
9.970975648 193.0
9.997236214 188.0
10.023496779 202.0
10.049757344 192.0
10.076017910 197.0
10.102278475 217.0
10.128539040 205.0
10.154799606 192.0
10.181060171 194.0
10.207320737 188.0
10.233581302 177.0
10.259841867 218.0
10.286102433 212.0
10.312362998 202.0
10.338623563 190.0
10.364884129 197.0
10.391144694 191.0
10.417405259 192.0
10.443665825 193.0
10.469926390 216.0
10.496186955 212.0
10.522447521 179.0
10.548708086 217.0
10.574968651 213.0
10.601229217 195.0
10.627489782 188.0
10.653750348 180.0
10.680010913 199.0
10.706271478 193.0
10.732532044 196.0
10.758792609 187.0
10.785053174 209.0
10.811313740 199.0
10.837574305 178.0
10.863834870 188.0
10.890095436 195.0
10.916356001 191.0
10.942616566 191.0
10.968877132 180.0
10.995137697 238.0
11.021398262 206.0
11.047658828 187.0
11.073919393 215.0
11.100179959 189.0
11.126440524 177.0
11.152701089 151.0
11.178961655 221.0
11.205222220 183.0
11.231482785 207.0
11.257743351 186.0
11.284003916 211.0
11.310264481 160.0
11.336525047 188.0
11.362785612 190.0
11.389046177 190.0
11.415306743 186.0
11.441567308 185.0
11.467827873 179.0
11.494088439 199.0
11.520349004 183.0
11.546609570 193.0
11.572870135 164.0
11.599130700 194.0
11.625391266 178.0
11.651651831 226.0
11.677912396 226.0
11.704172962 233.0
11.730433527 252.0
11.756694092 242.0
11.782954658 243.0
11.809215223 209.0
11.835475788 209.0
11.861736354 219.0
11.887996919 166.0
11.914257485 173.0
11.940518050 174.0
11.966778615 165.0
11.993039181 163.0
12.019299746 198.0
12.045560311 165.0
12.071820877 205.0
12.098081442 192.0
12.124342007 189.0
12.150602573 185.0
12.176863138 208.0
12.203123703 189.0
12.229384269 181.0
12.255644834 205.0
12.281905399 181.0
12.308165965 192.0
12.334426530 182.0
12.360687096 179.0
12.386947661 168.0
12.413208226 163.0
12.439468792 157.0
12.465729357 178.0
12.491989922 157.0
12.518250488 175.0
12.544511053 169.0
12.570771618 153.0
12.597032184 158.0
12.623292749 170.0
12.649553314 178.0
12.675813880 184.0
12.702074445 167.0
12.728335010 142.0
12.754595576 152.0
12.780856141 153.0
12.807116707 148.0
12.833377272 156.0
12.859637837 156.0
12.885898403 146.0
12.912158968 170.0
12.938419533 141.0
12.964680099 188.0
12.990940664 154.0
13.017201229 171.0
13.043461795 145.0
13.069722360 138.0
13.095982925 152.0
13.122243491 129.0
13.148504056 149.0
13.174764621 163.0
13.201025187 135.0
13.227285752 161.0
13.253546318 164.0
13.279806883 153.0
13.306067448 166.0
13.332328014 133.0
13.358588579 170.0
13.384849144 146.0
13.411109710 159.0
13.437370275 171.0
13.463630840 138.0
13.489891406 130.0
13.516151971 127.0
13.542412536 141.0
13.568673102 142.0
13.594933667 137.0
13.621194232 138.0
13.647454798 154.0
13.673715363 158.0
13.699975929 147.0
13.726236494 146.0
13.752497059 146.0
13.778757625 159.0
13.805018190 145.0
13.831278755 152.0
13.857539321 148.0
13.883799886 142.0
13.910060451 130.0
13.936321017 140.0
13.962581582 142.0
13.988842147 149.0
14.015102713 152.0
14.041363278 144.0
14.067623843 153.0
14.093884409 117.0
14.120144974 138.0
14.146405540 133.0
14.172666105 129.0
14.198926670 144.0
14.225187236 145.0
14.251447801 146.0
14.277708366 134.0
14.303968932 156.0
14.330229497 122.0
14.356490062 147.0
14.382750628 133.0
14.409011193 128.0
14.435271758 129.0
14.461532324 150.0
14.487792889 123.0
14.514053454 135.0
14.540314020 132.0
14.566574585 126.0
14.592835151 144.0
14.619095716 154.0
14.645356281 127.0
14.671616847 135.0
14.697877412 138.0
14.724137977 134.0
14.750398543 149.0
14.776659108 135.0
14.802919673 148.0
14.829180239 141.0
14.855440804 126.0
14.881701369 144.0
14.907961935 116.0
14.934222500 135.0
14.960483065 157.0
14.986743631 136.0
15.013004196 184.0
15.039264762 149.0
15.065525327 147.0
15.091785892 138.0
15.118046458 132.0
15.144307023 131.0
15.170567588 139.0
15.196828154 138.0
15.223088719 131.0
15.249349284 137.0
15.275609850 151.0
15.301870415 106.0
15.328130980 144.0
15.354391546 134.0
15.380652111 116.0
15.406912676 142.0
15.433173242 110.0
15.459433807 118.0
15.485694373 124.0
15.511954938 138.0
15.538215503 131.0
15.564476069 136.0
15.590736634 131.0
15.616997199 122.0
15.643257765 142.0
15.669518330 126.0
15.695778895 105.0
15.722039461 142.0
15.748300026 124.0
15.774560591 124.0
15.800821157 128.0
15.827081722 124.0
15.853342288 113.0
15.879602853 117.0
15.905863418 120.0
15.932123984 120.0
15.958384549 104.0
15.984645114 130.0
16.010905680 129.0
16.037166245 137.0
16.063426810 119.0
16.089687376 118.0
16.115947941 113.0
16.142208506 124.0
16.168469072 143.0
16.194729637 92.0
16.220990202 106.0
16.247250768 124.0
16.273511333 121.0
16.299771899 120.0
16.326032464 140.0
16.352293029 148.0
16.378553595 104.0
16.404814160 125.0
16.431074725 117.0
16.457335291 119.0
16.483595856 125.0
16.509856421 125.0
16.536116987 117.0
16.562377552 109.0
16.588638117 135.0
16.614898683 114.0
16.641159248 111.0
16.667419813 110.0
16.693680379 112.0
16.719940944 107.0
16.746201510 109.0
16.772462075 101.0
16.798722640 105.0
16.824983206 108.0
16.851243771 104.0
16.877504336 105.0
16.903764902 124.0
16.930025467 109.0
16.956286032 116.0
16.982546598 106.0
17.008807163 107.0
17.035067728 120.0
17.061328294 107.0
17.087588859 121.0
17.113849424 104.0
17.140109990 103.0
17.166370555 110.0
17.192631121 132.0
17.218891686 96.0
17.245152251 112.0
17.271412817 100.0
17.297673382 125.0
17.323933947 105.0
17.350194513 114.0
17.376455078 110.0
17.402715643 104.0
17.428976209 122.0
17.455236774 104.0
17.481497339 124.0
17.507757905 123.0
17.534018470 89.0
17.560279035 105.0
17.586539601 115.0
17.612800166 109.0
17.639060732 115.0
17.665321297 115.0
17.691581862 102.0
17.717842428 106.0
17.744102993 108.0
17.770363558 117.0
17.796624124 114.0
17.822884689 123.0
17.849145254 111.0
17.875405820 119.0
17.901666385 110.0
17.927926950 110.0
17.954187516 113.0
17.980448081 90.0
18.006708646 111.0
18.032969212 115.0
18.059229777 118.0
18.085490343 111.0
18.111750908 115.0
18.138011473 130.0
18.164272039 92.0
18.190532604 120.0
18.216793169 119.0
18.243053735 104.0
18.269314300 98.0
18.295574865 113.0
18.321835431 110.0
18.348095996 91.0
18.374356561 105.0
18.400617127 105.0
18.426877692 102.0
18.453138257 106.0
18.479398823 96.0
18.505659388 122.0
18.531919954 96.0
18.558180519 98.0
18.584441084 96.0
18.610701650 106.0
18.636962215 111.0
18.663222780 108.0
18.689483346 104.0
18.715743911 89.0
18.742004476 83.0
18.768265042 108.0
18.794525607 99.0
18.820786172 105.0
18.847046738 120.0
18.873307303 110.0
18.899567868 93.0
18.925828434 96.0
18.952088999 103.0
18.978349565 110.0
19.004610130 110.0
19.030870695 97.0
19.057131261 108.0
19.083391826 108.0
19.109652391 89.0
19.135912957 94.0
19.162173522 94.0
19.188434087 83.0
19.214694653 89.0
19.240955218 99.0
19.267215783 101.0
19.293476349 101.0
19.319736914 103.0
19.345997479 94.0
19.372258045 103.0
19.398518610 89.0
19.424779176 92.0
19.451039741 86.0
19.477300306 84.0
19.503560872 79.0
19.529821437 108.0
19.556082002 86.0
19.582342568 94.0
19.608603133 91.0
19.634863698 98.0
19.661124264 85.0
19.687384829 71.0
19.713645394 89.0
19.739905960 76.0
19.766166525 87.0
19.792427091 91.0
19.818687656 80.0
19.844948221 88.0
19.871208787 114.0
19.897469352 87.0
19.923729917 77.0
19.949990483 87.0
19.976251048 93.0
20.002511613 93.0
20.028772179 90.0
20.055032744 77.0
20.081293309 116.0
20.107553875 101.0
20.133814440 98.0
20.160075005 87.0
20.186335571 99.0
20.212596136 80.0
20.238856702 76.0
20.265117267 79.0
20.291377832 97.0
20.317638398 90.0
20.343898963 93.0
20.370159528 92.0
20.396420094 77.0
20.422680659 90.0
20.448941224 67.0
20.475201790 77.0
20.501462355 81.0
20.527722920 93.0
20.553983486 84.0
20.580244051 115.0
20.606504616 86.0
20.632765182 74.0
20.659025747 109.0
20.685286313 94.0
20.711546878 91.0
20.737807443 120.0
20.764068009 110.0
20.790328574 135.0
20.816589139 120.0
20.842849705 140.0
20.869110270 134.0
20.895370835 119.0
20.921631401 94.0
20.947891966 128.0
20.974152531 108.0
21.000413097 84.0
21.026673662 85.0
21.052934227 89.0
21.079194793 97.0
21.105455358 99.0
21.131715924 91.0
21.157976489 79.0
21.184237054 103.0
21.210497620 95.0
21.236758185 75.0
21.263018750 88.0
21.289279316 71.0
21.315539881 97.0
21.341800446 80.0
21.368061012 79.0
21.394321577 85.0
21.420582142 78.0
21.446842708 81.0
21.473103273 85.0
21.499363838 67.0
21.525624404 94.0
21.551884969 67.0
21.578145535 65.0
21.604406100 76.0
21.630666665 82.0
21.656927231 95.0
21.683187796 84.0
21.709448361 69.0
21.735708927 86.0
21.761969492 81.0
21.788230057 86.0
21.814490623 96.0
21.840751188 83.0
21.867011753 76.0
21.893272319 91.0
21.919532884 109.0
21.945793449 76.0
21.972054015 74.0
21.998314580 70.0
22.024575146 76.0
22.050835711 64.0
22.077096276 65.0
22.103356842 86.0
22.129617407 80.0
22.155877972 84.0
22.182138538 87.0
22.208399103 82.0
22.234659668 71.0
22.260920234 80.0
22.287180799 81.0
22.313441364 68.0
22.339701930 87.0
22.365962495 89.0
22.392223060 81.0
22.418483626 85.0
22.444744191 78.0
22.471004757 62.0
22.497265322 72.0
22.523525887 79.0
22.549786453 82.0
22.576047018 79.0
22.602307583 75.0
22.628568149 76.0
22.654828714 76.0
22.681089279 76.0
22.707349845 75.0
22.733610410 70.0
22.759870975 59.0
22.786131541 90.0
22.812392106 76.0
22.838652671 73.0
22.864913237 80.0
22.891173802 88.0
22.917434368 91.0
22.943694933 84.0
22.969955498 99.0
22.996216064 101.0
23.022476629 107.0
23.048737194 125.0
23.074997760 113.0
23.101258325 107.0
23.127518890 111.0
23.153779456 121.0
23.180040021 119.0
23.206300586 112.0
23.232561152 106.0
23.258821717 97.0
23.285082283 102.0
23.311342848 90.0
23.337603413 78.0
23.363863979 77.0
23.390124544 92.0
23.416385109 85.0
23.442645675 93.0
23.468906240 86.0
23.495166805 83.0
23.521427371 99.0
23.547687936 73.0
23.573948501 81.0
23.600209067 74.0
23.626469632 73.0
23.652730197 76.0
23.678990763 63.0
23.705251328 78.0
23.731511894 74.0
23.757772459 73.0
23.784033024 56.0
23.810293590 77.0
23.836554155 71.0
23.862814720 82.0
23.889075286 65.0
23.915335851 92.0
23.941596416 72.0
23.967856982 75.0
23.994117547 70.0
24.020378112 84.0
24.046638678 75.0
24.072899243 68.0
24.099159808 59.0
24.125420374 76.0
24.151680939 68.0
24.177941505 69.0
24.204202070 84.0
24.230462635 67.0
24.256723201 66.0
24.282983766 50.0
24.309244331 87.0
24.335504897 71.0
24.361765462 78.0
24.388026027 62.0
24.414286593 79.0
24.440547158 101.0
24.466807723 85.0
24.493068289 79.0
24.519328854 74.0
24.545589419 94.0
24.571849985 86.0
24.598110550 72.0
24.624371116 87.0
24.650631681 67.0
24.676892246 82.0
24.703152812 67.0
24.729413377 60.0
24.755673942 66.0
24.781934508 69.0
24.808195073 66.0
24.834455638 65.0
24.860716204 68.0
24.886976769 83.0
24.913237334 78.0
24.939497900 63.0
24.965758465 66.0
24.992019030 61.0
25.018279596 59.0
25.044540161 68.0
25.070800727 64.0
25.097061292 67.0
25.123321857 94.0
25.149582423 76.0
25.175842988 65.0
25.202103553 59.0
25.228364119 70.0
25.254624684 64.0
25.280885249 76.0
25.307145815 78.0
25.333406380 94.0
25.359666945 84.0
25.385927511 79.0
25.412188076 73.0
25.438448641 79.0
25.464709207 62.0
25.490969772 72.0
25.517230338 66.0
25.543490903 74.0
25.569751468 54.0
25.596012034 63.0
25.622272599 70.0
25.648533164 55.0
25.674793730 52.0
25.701054295 71.0
25.727314860 64.0
25.753575426 62.0
25.779835991 58.0
25.806096556 62.0
25.832357122 58.0
25.858617687 81.0
25.884878252 54.0
25.911138818 79.0
25.937399383 72.0
25.963659949 55.0
25.989920514 56.0
26.016181079 67.0
26.042441645 72.0
26.068702210 78.0
26.094962775 76.0
26.121223341 68.0
26.147483906 78.0
26.173744471 66.0
26.200005037 77.0
26.226265602 74.0
26.252526167 79.0
26.278786733 77.0
26.305047298 63.0
26.331307863 80.0
26.357568429 68.0
26.383828994 65.0
26.410089560 74.0
26.436350125 72.0
26.462610690 94.0
26.488871256 103.0
26.515131821 72.0
26.541392386 77.0
26.567652952 78.0
26.593913517 77.0
26.620174082 73.0
26.646434648 93.0
26.672695213 90.0
26.698955778 112.0
26.725216344 147.0
26.751476909 111.0
26.777737474 91.0
26.803998040 99.0
26.830258605 91.0
26.856519171 60.0
26.882779736 67.0
26.909040301 57.0
26.935300867 63.0
26.961561432 73.0
26.987821997 70.0
27.014082563 54.0
27.040343128 72.0
27.066603693 59.0
27.092864259 51.0
27.119124824 51.0
27.145385389 61.0
27.171645955 65.0
27.197906520 72.0
27.224167086 78.0
27.250427651 68.0
27.276688216 65.0
27.302948782 56.0
27.329209347 62.0
27.355469912 60.0
27.381730478 63.0
27.407991043 50.0
27.434251608 71.0
27.460512174 62.0
27.486772739 70.0
27.513033304 70.0
27.539293870 77.0
27.565554435 77.0
27.591815000 65.0
27.618075566 75.0
27.644336131 71.0
27.670596697 76.0
27.696857262 80.0
27.723117827 61.0
27.749378393 62.0
27.775638958 64.0
27.801899523 60.0
27.828160089 62.0
27.854420654 67.0
27.880681219 81.0
27.906941785 70.0
27.933202350 75.0
27.959462915 77.0
27.985723481 74.0
28.011984046 76.0
28.038244611 72.0
28.064505177 95.0
28.090765742 68.0
28.117026308 86.0
28.143286873 59.0
28.169547438 74.0
28.195808004 68.0
28.222068569 78.0
28.248329134 65.0
28.274589700 71.0
28.300850265 55.0
28.327110830 66.0
28.353371396 66.0
28.379631961 67.0
28.405892526 59.0
28.432153092 75.0
28.458413657 61.0
28.484674222 63.0
28.510934788 66.0
28.537195353 61.0
28.563455919 69.0
28.589716484 60.0
28.615977049 72.0
28.642237615 60.0
28.668498180 73.0
28.694758745 60.0
28.721019311 77.0
28.747279876 73.0
28.773540441 52.0
28.799801007 70.0
28.826061572 69.0
28.852322137 71.0
28.878582703 77.0
28.904843268 69.0
28.931103833 70.0
28.957364399 81.0
28.983624964 77.0
29.009885530 76.0
29.036146095 78.0
29.062406660 82.0
29.088667226 70.0
29.114927791 98.0
29.141188356 94.0
29.167448922 90.0
29.193709487 121.0
29.219970052 128.0
29.246230618 134.0
29.272491183 140.0
29.298751748 131.0
29.325012314 142.0
29.351272879 166.0
29.377533444 179.0
29.403794010 203.0
29.430054575 289.0
29.456315141 369.0
29.482575706 575.0
29.508836271 637.0
29.535096837 724.0
29.561357402 735.0
29.587617967 650.0
29.613878533 536.0
29.640139098 430.0
29.666399663 342.0
29.692660229 221.0
29.718920794 183.0
29.745181359 131.0
29.771441925 114.0
29.797702490 97.0
29.823963055 91.0
29.850223621 91.0
29.876484186 78.0
29.902744752 79.0
29.929005317 75.0
29.955265882 90.0
29.981526448 93.0
30.007787013 79.0
30.034047578 83.0
30.060308144 72.0
30.086568709 89.0
30.112829274 87.0
30.139089840 113.0
30.165350405 117.0
30.191610970 136.0
30.217871536 128.0
30.244132101 137.0
30.270392666 136.0
30.296653232 119.0
30.322913797 116.0
30.349174363 75.0
30.375434928 87.0
30.401695493 68.0
30.427956059 81.0
30.454216624 72.0
30.480477189 67.0
30.506737755 69.0
30.532998320 61.0
30.559258885 53.0
30.585519451 52.0
30.611780016 50.0
30.638040581 65.0
30.664301147 65.0
30.690561712 57.0
30.716822277 57.0
30.743082843 59.0
30.769343408 77.0
30.795603974 53.0
30.821864539 60.0
30.848125104 61.0
30.874385670 67.0
30.900646235 66.0
30.926906800 69.0
30.953167366 65.0
30.979427931 75.0
31.005688496 77.0
31.031949062 86.0
31.058209627 78.0
31.084470192 83.0
31.110730758 85.0
31.136991323 92.0
31.163251889 81.0
31.189512454 90.0
31.215773019 77.0
31.242033585 70.0
31.268294150 74.0
31.294554715 100.0
31.320815281 78.0
31.347075846 57.0
31.373336411 66.0
31.399596977 76.0
31.425857542 59.0
31.452118107 64.0
31.478378673 63.0
31.504639238 72.0
31.530899803 71.0
31.557160369 66.0
31.583420934 76.0
31.609681500 73.0
31.635942065 72.0
31.662202630 84.0
31.688463196 73.0
31.714723761 64.0
31.740984326 65.0
31.767244892 66.0
31.793505457 77.0
31.819766022 74.0
31.846026588 79.0
31.872287153 73.0
31.898547718 78.0
31.924808284 81.0
31.951068849 72.0
31.977329414 83.0
32.003589980 68.0
32.029850545 77.0
32.056111111 112.0
32.082371676 99.0
32.108632241 124.0
32.134892807 132.0
32.161153372 162.0
32.187413937 190.0
32.213674503 195.0
32.239935068 250.0
32.266195633 251.0
32.292456199 372.0
32.318716764 441.0
32.344977329 566.0
32.371237895 562.0
32.397498460 450.0
32.423759025 355.0
32.450019591 328.0
32.476280156 235.0
32.502540722 182.0
32.528801287 189.0
32.555061852 177.0
32.581322418 217.0
32.607582983 251.0
32.633843548 298.0
32.660104114 319.0
32.686364679 355.0
32.712625244 379.0
32.738885810 371.0
32.765146375 361.0
32.791406940 350.0
32.817667506 292.0
32.843928071 214.0
32.870188636 178.0
32.896449202 156.0
32.922709767 129.0
32.948970333 109.0
32.975230898 95.0
33.001491463 85.0
33.027752029 113.0
33.054012594 109.0
33.080273159 84.0
33.106533725 110.0
33.132794290 108.0
33.159054855 101.0
33.185315421 112.0
33.211575986 114.0
33.237836551 121.0
33.264097117 137.0
33.290357682 145.0
33.316618247 141.0
33.342878813 143.0
33.369139378 162.0
33.395399944 153.0
33.421660509 126.0
33.447921074 119.0
33.474181640 129.0
33.500442205 127.0
33.526702770 109.0
33.552963336 99.0
33.579223901 114.0
33.605484466 94.0
33.631745032 100.0
33.658005597 104.0
33.684266162 100.0
33.710526728 82.0
33.736787293 93.0
33.763047858 101.0
33.789308424 99.0
33.815568989 111.0
33.841829555 102.0
33.868090120 126.0
33.894350685 140.0
33.920611251 151.0
33.946871816 138.0
33.973132381 135.0
33.999392947 148.0
34.025653512 128.0
34.051914077 155.0
34.078174643 118.0
34.104435208 142.0
34.130695773 117.0
34.156956339 103.0
34.183216904 104.0
34.209477469 72.0
34.235738035 115.0
34.261998600 88.0
34.288259166 125.0
34.314519731 116.0
34.340780296 137.0
34.367040862 159.0
34.393301427 199.0
34.419561992 231.0
34.445822558 338.0
34.472083123 378.0
34.498343688 465.0
34.524604254 471.0
34.550864819 363.0
34.577125384 340.0
34.603385950 249.0
34.629646515 189.0
34.655907081 155.0
34.682167646 102.0
34.708428211 83.0
34.734688777 72.0
34.760949342 79.0
34.787209907 55.0
34.813470473 66.0
34.839731038 60.0
34.865991603 65.0
34.892252169 65.0
34.918512734 60.0
34.944773299 66.0
34.971033865 56.0
34.997294430 49.0
35.023554995 48.0
35.049815561 49.0
35.076076126 49.0
35.102336692 47.0
35.128597257 45.0
35.154857822 47.0
35.181118388 39.0
35.207378953 59.0
35.233639518 50.0
35.259900084 65.0
35.286160649 65.0
35.312421214 62.0
35.338681780 57.0
35.364942345 41.0
35.391202910 58.0
35.417463476 69.0
35.443724041 70.0
35.469984606 45.0
35.496245172 45.0
35.522505737 59.0
35.548766303 36.0
35.575026868 47.0
35.601287433 36.0
35.627547999 63.0
35.653808564 45.0
35.680069129 41.0
35.706329695 56.0
35.732590260 62.0
35.758850825 44.0
35.785111391 44.0
35.811371956 56.0
35.837632521 51.0
35.863893087 53.0
35.890153652 51.0
35.916414217 65.0
35.942674783 49.0
35.968935348 57.0
35.995195914 71.0
36.021456479 87.0
36.047717044 80.0
36.073977610 103.0
36.100238175 131.0
36.126498740 92.0
36.152759306 103.0
36.179019871 92.0
36.205280436 59.0
36.231541002 63.0
36.257801567 58.0
36.284062132 50.0
36.310322698 32.0
36.336583263 53.0
36.362843828 50.0
36.389104394 49.0
36.415364959 43.0
36.441625525 37.0
36.467886090 48.0
36.494146655 41.0
36.520407221 55.0
36.546667786 54.0
36.572928351 53.0
36.599188917 48.0
36.625449482 62.0
36.651710047 41.0
36.677970613 68.0
36.704231178 62.0
36.730491743 64.0
36.756752309 79.0
36.783012874 75.0
36.809273439 99.0
36.835534005 87.0
36.861794570 118.0
36.888055136 90.0
36.914315701 83.0
36.940576266 77.0
36.966836832 63.0
36.993097397 82.0
37.019357962 52.0
37.045618528 49.0
37.071879093 49.0
37.098139658 53.0
37.124400224 49.0
37.150660789 52.0
37.176921354 40.0
37.203181920 43.0
37.229442485 43.0
37.255703050 56.0
37.281963616 50.0
37.308224181 51.0
37.334484747 44.0
37.360745312 47.0
37.387005877 49.0
37.413266443 43.0
37.439527008 51.0
37.465787573 40.0
37.492048139 43.0
37.518308704 63.0
37.544569269 59.0
37.570829835 44.0
37.597090400 38.0
37.623350965 36.0
37.649611531 41.0
37.675872096 46.0
37.702132661 44.0
37.728393227 44.0
37.754653792 49.0
37.780914358 53.0
37.807174923 50.0
37.833435488 40.0
37.859696054 53.0
37.885956619 37.0
37.912217184 38.0
37.938477750 50.0
37.964738315 43.0
37.990998880 60.0
38.017259446 39.0
38.043520011 43.0
38.069780576 52.0
38.096041142 43.0
38.122301707 45.0
38.148562272 43.0
38.174822838 64.0
38.201083403 53.0
38.227343969 39.0
38.253604534 40.0
38.279865099 58.0
38.306125665 43.0
38.332386230 48.0
38.358646795 48.0
38.384907361 31.0
38.411167926 31.0
38.437428491 46.0
38.463689057 51.0
38.489949622 38.0
38.516210187 44.0
38.542470753 43.0
38.568731318 35.0
38.594991884 48.0
38.621252449 39.0
38.647513014 38.0
38.673773580 46.0
38.700034145 38.0
38.726294710 54.0
38.752555276 49.0
38.778815841 73.0
38.805076406 76.0
38.831336972 77.0
38.857597537 103.0
38.883858102 96.0
38.910118668 116.0
38.936379233 90.0
38.962639798 90.0
38.988900364 97.0
39.015160929 84.0
39.041421495 83.0
39.067682060 75.0
39.093942625 75.0
39.120203191 72.0
39.146463756 58.0
39.172724321 65.0
39.198984887 59.0
39.225245452 60.0
39.251506017 51.0
39.277766583 69.0
39.304027148 62.0
39.330287713 62.0
39.356548279 62.0
39.382808844 62.0
39.409069409 83.0
39.435329975 85.0
39.461590540 83.0
39.487851106 96.0
39.514111671 118.0
39.540372236 114.0
39.566632802 100.0
39.592893367 133.0
39.619153932 105.0
39.645414498 98.0
39.671675063 69.0
39.697935628 78.0
39.724196194 52.0
39.750456759 58.0
39.776717324 66.0
39.802977890 59.0
39.829238455 50.0
39.855499020 50.0
39.881759586 38.0
39.908020151 38.0
39.934280717 48.0
39.960541282 34.0
39.986801847 38.0
40.013062413 38.0
40.039322978 56.0
40.065583543 37.0
40.091844109 43.0
40.118104674 44.0
40.144365239 43.0
40.170625805 54.0
40.196886370 41.0
40.223146935 37.0
40.249407501 32.0
40.275668066 45.0
40.301928631 57.0
40.328189197 51.0
40.354449762 46.0
40.380710328 42.0
40.406970893 34.0
40.433231458 40.0
40.459492024 47.0
40.485752589 41.0
40.512013154 49.0
40.538273720 48.0
40.564534285 44.0
40.590794850 56.0
40.617055416 50.0
40.643315981 47.0
40.669576546 44.0
40.695837112 47.0
40.722097677 49.0
40.748358242 58.0
40.774618808 43.0
40.800879373 46.0
40.827139939 54.0
40.853400504 41.0
40.879661069 57.0
40.905921635 59.0
40.932182200 45.0
40.958442765 53.0
40.984703331 46.0
41.010963896 78.0
41.037224461 66.0
41.063485027 69.0
41.089745592 58.0
41.116006157 83.0
41.142266723 58.0
41.168527288 83.0
41.194787853 69.0
41.221048419 82.0
41.247308984 73.0
41.273569550 98.0
41.299830115 100.0
41.326090680 124.0
41.352351246 170.0
41.378611811 170.0
41.404872376 231.0
41.431132942 253.0
41.457393507 263.0
41.483654072 247.0
41.509914638 242.0
41.536175203 203.0
41.562435768 168.0
41.588696334 140.0
41.614956899 109.0
41.641217464 87.0
41.667478030 81.0
41.693738595 65.0
41.719999161 92.0
41.746259726 89.0
41.772520291 82.0
41.798780857 96.0
41.825041422 78.0
41.851301987 73.0
41.877562553 78.0
41.903823118 89.0
41.930083683 64.0
41.956344249 57.0
41.982604814 56.0
42.008865379 57.0
42.035125945 55.0
42.061386510 68.0
42.087647075 48.0
42.113907641 44.0
42.140168206 46.0
42.166428772 44.0
42.192689337 43.0
42.218949902 48.0
42.245210468 57.0
42.271471033 42.0
42.297731598 46.0
42.323992164 40.0
42.350252729 46.0
42.376513294 51.0
42.402773860 37.0
42.429034425 40.0
42.455294990 33.0
42.481555556 49.0
42.507816121 42.0
42.534076687 55.0
42.560337252 41.0
42.586597817 54.0
42.612858383 41.0
42.639118948 44.0
42.665379513 41.0
42.691640079 28.0
42.717900644 50.0
42.744161209 36.0
42.770421775 36.0
42.796682340 32.0
42.822942905 43.0
42.849203471 53.0
42.875464036 63.0
42.901724601 50.0
42.927985167 52.0
42.954245732 59.0
42.980506298 65.0
43.006766863 59.0
43.033027428 88.0
43.059287994 75.0
43.085548559 74.0
43.111809124 83.0
43.138069690 68.0
43.164330255 66.0
43.190590820 69.0
43.216851386 72.0
43.243111951 90.0
43.269372516 115.0
43.295633082 123.0
43.321893647 98.0
43.348154212 103.0
43.374414778 98.0
43.400675343 90.0
43.426935909 99.0
43.453196474 71.0
43.479457039 73.0
43.505717605 51.0
43.531978170 54.0
43.558238735 64.0
43.584499301 53.0
43.610759866 48.0
43.637020431 47.0
43.663280997 52.0
43.689541562 50.0
43.715802127 53.0
43.742062693 43.0
43.768323258 57.0
43.794583823 36.0
43.820844389 49.0
43.847104954 56.0
43.873365520 57.0
43.899626085 48.0
43.925886650 52.0
43.952147216 54.0
43.978407781 55.0
44.004668346 41.0
44.030928912 48.0
44.057189477 55.0
44.083450042 61.0
44.109710608 67.0
44.135971173 43.0
44.162231738 57.0
44.188492304 72.0
44.214752869 61.0
44.241013434 60.0
44.267274000 46.0
44.293534565 65.0
44.319795131 67.0
44.346055696 51.0
44.372316261 57.0
44.398576827 52.0
44.424837392 57.0
44.451097957 63.0
44.477358523 32.0
44.503619088 45.0
44.529879653 53.0
44.556140219 35.0
44.582400784 40.0
44.608661349 53.0
44.634921915 48.0
44.661182480 44.0
44.687443045 55.0
44.713703611 55.0
44.739964176 41.0
44.766224742 41.0
44.792485307 44.0
44.818745872 44.0
44.845006438 52.0
44.871267003 40.0
44.897527568 48.0
44.923788134 40.0
44.950048699 47.0
44.976309264 30.0
45.002569830 46.0
45.028830395 44.0
45.055090960 44.0
45.081351526 38.0
45.107612091 45.0
45.133872656 31.0
45.160133222 33.0
45.186393787 28.0
45.212654353 40.0
45.238914918 39.0
45.265175483 36.0
45.291436049 50.0
45.317696614 27.0
45.343957179 40.0
45.370217745 30.0
45.396478310 39.0
45.422738875 40.0
45.448999441 43.0
45.475260006 30.0
45.501520571 41.0
45.527781137 47.0
45.554041702 39.0
45.580302267 37.0
45.606562833 48.0
45.632823398 48.0
45.659083964 45.0
45.685344529 36.0
45.711605094 47.0
45.737865660 48.0
45.764126225 41.0
45.790386790 46.0
45.816647356 58.0
45.842907921 62.0
45.869168486 67.0
45.895429052 56.0
45.921689617 64.0
45.947950182 68.0
45.974210748 66.0
46.000471313 74.0
46.026731878 70.0
46.052992444 56.0
46.079253009 69.0
46.105513575 56.0
46.131774140 53.0
46.158034705 41.0
46.184295271 53.0
46.210555836 61.0
46.236816401 38.0
46.263076967 42.0
46.289337532 54.0
46.315598097 36.0
46.341858663 53.0
46.368119228 34.0
46.394379793 24.0
46.420640359 37.0
46.446900924 47.0
46.473161490 34.0
46.499422055 40.0
46.525682620 44.0
46.551943186 35.0
46.578203751 45.0
46.604464316 49.0
46.630724882 40.0
46.656985447 51.0
46.683246012 44.0
46.709506578 47.0
46.735767143 49.0
46.762027708 33.0
46.788288274 41.0
46.814548839 52.0
46.840809404 47.0
46.867069970 52.0
46.893330535 39.0
46.919591101 54.0
46.945851666 63.0
46.972112231 74.0
46.998372797 80.0
47.024633362 81.0
47.050893927 66.0
47.077154493 107.0
47.103415058 112.0
47.129675623 88.0
47.155936189 93.0
47.182196754 99.0
47.208457319 88.0
47.234717885 81.0
47.260978450 80.0
47.287239015 88.0
47.313499581 75.0
47.339760146 87.0
47.366020712 98.0
47.392281277 91.0
47.418541842 78.0
47.444802408 98.0
47.471062973 88.0
47.497323538 90.0
47.523584104 78.0
47.549844669 89.0
47.576105234 92.0
47.602365800 109.0
47.628626365 117.0
47.654886930 132.0
47.681147496 121.0
47.707408061 96.0
47.733668626 93.0
47.759929192 86.0
47.786189757 77.0
47.812450323 77.0
47.838710888 68.0
47.864971453 60.0
47.891232019 63.0
47.917492584 53.0
47.943753149 60.0
47.970013715 52.0
47.996274280 61.0
48.022534845 45.0
48.048795411 50.0
48.075055976 47.0
48.101316541 48.0
48.127577107 47.0
48.153837672 45.0
48.180098237 41.0
48.206358803 55.0
48.232619368 38.0
48.258879934 51.0
48.285140499 38.0
48.311401064 34.0
48.337661630 46.0
48.363922195 45.0
48.390182760 41.0
48.416443326 60.0
48.442703891 53.0
48.468964456 65.0
48.495225022 52.0
48.521485587 49.0
48.547746152 73.0
48.574006718 78.0
48.600267283 93.0
48.626527848 79.0
48.652788414 111.0
48.679048979 105.0
48.705309545 92.0
48.731570110 79.0
48.757830675 64.0
48.784091241 71.0
48.810351806 55.0
48.836612371 50.0
48.862872937 47.0
48.889133502 53.0
48.915394067 44.0
48.941654633 38.0
48.967915198 46.0
48.994175763 52.0
49.020436329 34.0
49.046696894 47.0
49.072957459 54.0
49.099218025 49.0
49.125478590 49.0
49.151739156 47.0
49.177999721 49.0
49.204260286 44.0
49.230520852 34.0
49.256781417 44.0
49.283041982 44.0
49.309302548 46.0
49.335563113 49.0
49.361823678 40.0
49.388084244 53.0
49.414344809 44.0
49.440605374 36.0
49.466865940 39.0
49.493126505 50.0
49.519387070 45.0
49.545647636 41.0
49.571908201 43.0
49.598168767 49.0
49.624429332 34.0
49.650689897 51.0
49.676950463 34.0
49.703211028 49.0
49.729471593 69.0
49.755732159 51.0
49.781992724 74.0
49.808253289 54.0
49.834513855 74.0
49.860774420 43.0
49.887034985 47.0
49.913295551 69.0
49.939556116 51.0
49.965816682 41.0
49.992077247 61.0
50.018337812 58.0
50.044598378 69.0
50.070858943 67.0
50.097119508 74.0
50.123380074 60.0
50.149640639 60.0
50.175901204 69.0
50.202161770 58.0
50.228422335 62.0
50.254682900 63.0
50.280943466 48.0
50.307204031 42.0
50.333464596 45.0
50.359725162 41.0
50.385985727 37.0
50.412246293 40.0
50.438506858 40.0
50.464767423 46.0
50.491027989 40.0
50.517288554 45.0
50.543549119 55.0
50.569809685 51.0
50.596070250 54.0
50.622330815 44.0
50.648591381 32.0
50.674851946 55.0
50.701112511 51.0
50.727373077 45.0
50.753633642 44.0
50.779894207 40.0
50.806154773 44.0
50.832415338 36.0
50.858675904 50.0
50.884936469 45.0
50.911197034 34.0
50.937457600 38.0
50.963718165 44.0
50.989978730 42.0
51.016239296 45.0
51.042499861 34.0
51.068760426 50.0
51.095020992 44.0
51.121281557 42.0
51.147542122 46.0
51.173802688 44.0
51.200063253 46.0
51.226323818 39.0
51.252584384 44.0
51.278844949 34.0
51.305105515 45.0
51.331366080 44.0
51.357626645 26.0
51.383887211 43.0
51.410147776 42.0
51.436408341 37.0
51.462668907 40.0
51.488929472 36.0
51.515190037 44.0
51.541450603 47.0
51.567711168 37.0
51.593971733 39.0
51.620232299 32.0
51.646492864 73.0
51.672753429 56.0
51.699013995 71.0
51.725274560 82.0
51.751535126 88.0
51.777795691 107.0
51.804056256 184.0
51.830316822 205.0
51.856577387 225.0
51.882837952 182.0
51.909098518 205.0
51.935359083 184.0
51.961619648 213.0
51.987880214 186.0
52.014140779 186.0
52.040401344 156.0
52.066661910 131.0
52.092922475 108.0
52.119183040 114.0
52.145443606 86.0
52.171704171 78.0
52.197964737 83.0
52.224225302 64.0
52.250485867 61.0
52.276746433 43.0
52.303006998 40.0
52.329267563 40.0
52.355528129 38.0
52.381788694 23.0
52.408049259 36.0
52.434309825 31.0
52.460570390 40.0
52.486830955 35.0
52.513091521 41.0
52.539352086 35.0
52.565612651 32.0
52.591873217 37.0
52.618133782 37.0
52.644394348 32.0
52.670654913 34.0
52.696915478 35.0
52.723176044 24.0
52.749436609 27.0
52.775697174 21.0
52.801957740 37.0
52.828218305 39.0
52.854478870 28.0
52.880739436 36.0
52.907000001 39.0
52.933260566 32.0
52.959521132 31.0
52.985781697 45.0
53.012042262 21.0
53.038302828 28.0
53.064563393 38.0
53.090823959 38.0
53.117084524 38.0
53.143345089 38.0
53.169605655 29.0
53.195866220 33.0
53.222126785 48.0
53.248387351 34.0
53.274647916 42.0
53.300908481 35.0
53.327169047 43.0
53.353429612 52.0
53.379690177 37.0
53.405950743 33.0
53.432211308 40.0
53.458471873 41.0
53.484732439 33.0
53.510993004 49.0
53.537253570 38.0
53.563514135 36.0
53.589774700 30.0
53.616035266 36.0
53.642295831 34.0
53.668556396 25.0
53.694816962 49.0
53.721077527 33.0
53.747338092 28.0
53.773598658 31.0
53.799859223 30.0
53.826119788 32.0
53.852380354 41.0
53.878640919 34.0
53.904901485 38.0
53.931162050 35.0
53.957422615 42.0
53.983683181 25.0
54.009943746 36.0
54.036204311 43.0
54.062464877 42.0
54.088725442 29.0
54.114986007 39.0
54.141246573 40.0
54.167507138 50.0
54.193767703 46.0
54.220028269 37.0
54.246288834 48.0
54.272549399 49.0
54.298809965 43.0
54.325070530 37.0
54.351331096 49.0
54.377591661 31.0
54.403852226 22.0
54.430112792 46.0
54.456373357 38.0
54.482633922 31.0
54.508894488 47.0
54.535155053 41.0
54.561415618 49.0
54.587676184 49.0
54.613936749 33.0
54.640197314 28.0
54.666457880 28.0
54.692718445 29.0
54.718979010 33.0
54.745239576 37.0
54.771500141 28.0
54.797760707 23.0
54.824021272 27.0
54.850281837 47.0
54.876542403 34.0
54.902802968 32.0
54.929063533 39.0
54.955324099 31.0
54.981584664 38.0
55.007845229 30.0
55.034105795 37.0
55.060366360 29.0
55.086626925 28.0
55.112887491 31.0
55.139148056 34.0
55.165408621 35.0
55.191669187 42.0
55.217929752 44.0
55.244190318 28.0
55.270450883 29.0
55.296711448 33.0
55.322972014 24.0
55.349232579 28.0
55.375493144 27.0
55.401753710 35.0
55.428014275 36.0
55.454274840 32.0
55.480535406 36.0
55.506795971 43.0
55.533056536 31.0
55.559317102 40.0
55.585577667 32.0
55.611838232 36.0
55.638098798 33.0
55.664359363 28.0
55.690619929 31.0
55.716880494 43.0
55.743141059 35.0
55.769401625 31.0
55.795662190 22.0
55.821922755 35.0
55.848183321 31.0
55.874443886 21.0
55.900704451 38.0
55.926965017 35.0
55.953225582 45.0
55.979486147 37.0
56.005746713 41.0
56.032007278 34.0
56.058267843 43.0
56.084528409 51.0
56.110788974 56.0
56.137049540 46.0
56.163310105 34.0
56.189570670 52.0
56.215831236 42.0
56.242091801 42.0
56.268352366 38.0
56.294612932 37.0
56.320873497 39.0
56.347134062 49.0
56.373394628 43.0
56.399655193 53.0
56.425915758 55.0
56.452176324 49.0
56.478436889 67.0
56.504697454 67.0
56.530958020 91.0
56.557218585 77.0
56.583479151 99.0
56.609739716 108.0
56.636000281 107.0
56.662260847 114.0
56.688521412 126.0
56.714781977 129.0
56.741042543 124.0
56.767303108 104.0
56.793563673 99.0
56.819824239 75.0
56.846084804 86.0
56.872345369 71.0
56.898605935 74.0
56.924866500 64.0
56.951127065 43.0
56.977387631 41.0
57.003648196 38.0
57.029908762 44.0
57.056169327 38.0
57.082429892 41.0
57.108690458 39.0
57.134951023 42.0
57.161211588 33.0
57.187472154 47.0
57.213732719 56.0
57.239993284 33.0
57.266253850 33.0
57.292514415 35.0
57.318774980 24.0
57.345035546 46.0
57.371296111 35.0
57.397556676 46.0
57.423817242 46.0
57.450077807 34.0
57.476338373 53.0
57.502598938 58.0
57.528859503 72.0
57.555120069 57.0
57.581380634 64.0
57.607641199 57.0
57.633901765 54.0
57.660162330 56.0
57.686422895 47.0
57.712683461 48.0
57.738944026 41.0
57.765204591 48.0
57.791465157 55.0
57.817725722 54.0
57.843986288 31.0
57.870246853 50.0
57.896507418 47.0
57.922767984 40.0
57.949028549 41.0
57.975289114 42.0
58.001549680 40.0
58.027810245 27.0
58.054070810 49.0
58.080331376 44.0
58.106591941 37.0
58.132852506 40.0
58.159113072 34.0
58.185373637 51.0
58.211634202 40.0
58.237894768 37.0
58.264155333 35.0
58.290415899 45.0
58.316676464 38.0
58.342937029 40.0
58.369197595 39.0
58.395458160 47.0
58.421718725 40.0
58.447979291 33.0
58.474239856 25.0
58.500500421 35.0
58.526760987 25.0
58.553021552 40.0
58.579282117 36.0
58.605542683 50.0
58.631803248 48.0
58.658063813 45.0
58.684324379 53.0
58.710584944 36.0
58.736845510 52.0
58.763106075 53.0
58.789366640 39.0
58.815627206 50.0
58.841887771 46.0
58.868148336 32.0
58.894408902 37.0
58.920669467 48.0
58.946930032 36.0
58.973190598 42.0
58.999451163 46.0
59.025711728 47.0
59.051972294 41.0
59.078232859 45.0
59.104493424 43.0
59.130753990 39.0
59.157014555 39.0
59.183275121 48.0
59.209535686 44.0
59.235796251 39.0
59.262056817 38.0
59.288317382 33.0
59.314577947 31.0
59.340838513 52.0
59.367099078 47.0
59.393359643 48.0
59.419620209 36.0
59.445880774 42.0
59.472141339 53.0
59.498401905 44.0
59.524662470 40.0
59.550923035 44.0
59.577183601 43.0
59.603444166 42.0
59.629704732 43.0
59.655965297 55.0
59.682225862 47.0
59.708486428 37.0
59.734746993 48.0
59.761007558 57.0
59.787268124 41.0
59.813528689 46.0
59.839789254 41.0
59.866049820 39.0
59.892310385 40.0
59.918570950 43.0
59.944831516 56.0
59.971092081 66.0
59.997352646 58.0
60.023613212 62.0
60.049873777 83.0
60.076134343 122.0
60.102394908 104.0
60.128655473 121.0
60.154916039 95.0
60.181176604 104.0
60.207437169 79.0
60.233697735 82.0
60.259958300 78.0
60.286218865 85.0
60.312479431 64.0
60.338739996 59.0
60.365000561 58.0
60.391261127 51.0
60.417521692 44.0
60.443782257 37.0
60.470042823 47.0
60.496303388 39.0
60.522563954 40.0
60.548824519 46.0
60.575085084 44.0
60.601345650 45.0
60.627606215 43.0
60.653866780 32.0
60.680127346 42.0
60.706387911 54.0
60.732648476 45.0
60.758909042 48.0
60.785169607 65.0
60.811430172 63.0
60.837690738 66.0
60.863951303 57.0
60.890211868 53.0
60.916472434 53.0
60.942732999 49.0
60.968993565 53.0
60.995254130 42.0
61.021514695 57.0
61.047775261 46.0
61.074035826 48.0
61.100296391 48.0
61.126556957 39.0
61.152817522 54.0
61.179078087 37.0
61.205338653 34.0
61.231599218 45.0
61.257859783 39.0
61.284120349 29.0
61.310380914 45.0
61.336641479 37.0
61.362902045 37.0
61.389162610 37.0
61.415423176 49.0
61.441683741 50.0
61.467944306 37.0
61.494204872 39.0
61.520465437 38.0
61.546726002 45.0
61.572986568 48.0
61.599247133 23.0
61.625507698 34.0
61.651768264 23.0
61.678028829 37.0
61.704289394 32.0
61.730549960 31.0
61.756810525 39.0
61.783071091 37.0
61.809331656 29.0
61.835592221 38.0
61.861852787 24.0
61.888113352 31.0
61.914373917 27.0
61.940634483 33.0
61.966895048 45.0
61.993155613 38.0
62.019416179 34.0
62.045676744 33.0
62.071937309 42.0
62.098197875 28.0
62.124458440 31.0
62.150719005 36.0
62.176979571 38.0
62.203240136 53.0
62.229500702 45.0
62.255761267 55.0
62.282021832 78.0
62.308282398 83.0
62.334542963 105.0
62.360803528 123.0
62.387064094 106.0
62.413324659 144.0
62.439585224 142.0
62.465845790 132.0
62.492106355 148.0
62.518366920 137.0
62.544627486 150.0
62.570888051 129.0
62.597148616 127.0
62.623409182 121.0
62.649669747 113.0
62.675930313 92.0
62.702190878 79.0
62.728451443 87.0
62.754712009 89.0
62.780972574 103.0
62.807233139 74.0
62.833493705 60.0
62.859754270 56.0
62.886014835 38.0
62.912275401 38.0
62.938535966 48.0
62.964796531 46.0
62.991057097 41.0
63.017317662 33.0
63.043578227 44.0
63.069838793 35.0
63.096099358 45.0
63.122359924 44.0
63.148620489 34.0
63.174881054 30.0
63.201141620 41.0
63.227402185 40.0
63.253662750 50.0
63.279923316 41.0
63.306183881 43.0
63.332444446 45.0
63.358705012 38.0
63.384965577 41.0
63.411226142 28.0
63.437486708 42.0
63.463747273 32.0
63.490007838 36.0
63.516268404 35.0
63.542528969 36.0
63.568789535 45.0
63.595050100 43.0
63.621310665 44.0
63.647571231 52.0
63.673831796 39.0
63.700092361 38.0
63.726352927 44.0
63.752613492 54.0
63.778874057 52.0
63.805134623 61.0
63.831395188 54.0
63.857655753 68.0
63.883916319 61.0
63.910176884 55.0
63.936437449 59.0
63.962698015 49.0
63.988958580 65.0
64.015219146 48.0
64.041479711 54.0
64.067740276 49.0
64.094000842 41.0
64.120261407 38.0
64.146521972 35.0
64.172782538 33.0
64.199043103 51.0
64.225303668 35.0
64.251564234 41.0
64.277824799 35.0
64.304085364 31.0
64.330345930 34.0
64.356606495 34.0
64.382867060 40.0
64.409127626 32.0
64.435388191 33.0
64.461648757 35.0
64.487909322 29.0
64.514169887 39.0
64.540430453 30.0
64.566691018 37.0
64.592951583 32.0
64.619212149 38.0
64.645472714 35.0
64.671733279 34.0
64.697993845 31.0
64.724254410 52.0
64.750514975 40.0
64.776775541 35.0
64.803036106 40.0
64.829296671 43.0
64.855557237 55.0
64.881817802 45.0
64.908078368 23.0
64.934338933 45.0
64.960599498 32.0
64.986860064 36.0
65.013120629 37.0
65.039381194 39.0
65.065641760 43.0
65.091902325 31.0
65.118162890 31.0
65.144423456 30.0
65.170684021 37.0
65.196944586 29.0
65.223205152 42.0
65.249465717 27.0
65.275726283 35.0
65.301986848 33.0
65.328247413 31.0
65.354507979 30.0
65.380768544 35.0
65.407029109 19.0
65.433289675 29.0
65.459550240 26.0
65.485810805 34.0
65.512071371 41.0
65.538331936 33.0
65.564592501 40.0
65.590853067 30.0
65.617113632 37.0
65.643374197 34.0
65.669634763 33.0
65.695895328 38.0
65.722155894 37.0
65.748416459 40.0
65.774677024 38.0
65.800937590 42.0
65.827198155 25.0
65.853458720 37.0
65.879719286 37.0
65.905979851 42.0
65.932240416 45.0
65.958500982 32.0
65.984761547 28.0
66.011022112 27.0
66.037282678 27.0
66.063543243 34.0
66.089803808 33.0
66.116064374 35.0
66.142324939 27.0
66.168585505 36.0
66.194846070 20.0
66.221106635 34.0
66.247367201 28.0
66.273627766 28.0
66.299888331 31.0
66.326148897 35.0
66.352409462 26.0
66.378670027 33.0
66.404930593 34.0
66.431191158 23.0
66.457451723 30.0
66.483712289 35.0
66.509972854 22.0
66.536233419 37.0
66.562493985 34.0
66.588754550 35.0
66.615015116 27.0
66.641275681 26.0
66.667536246 37.0
66.693796812 39.0
66.720057377 22.0
66.746317942 38.0
66.772578508 33.0
66.798839073 32.0
66.825099638 20.0
66.851360204 28.0
66.877620769 32.0
66.903881334 35.0
66.930141900 35.0
66.956402465 27.0
66.982663030 34.0
67.008923596 35.0
67.035184161 26.0
67.061444727 30.0
67.087705292 33.0
67.113965857 38.0
67.140226423 36.0
67.166486988 28.0
67.192747553 22.0
67.219008119 32.0
67.245268684 31.0
67.271529249 47.0
67.297789815 29.0
67.324050380 39.0
67.350310945 29.0
67.376571511 40.0
67.402832076 32.0
67.429092641 39.0
67.455353207 31.0
67.481613772 43.0
67.507874338 52.0
67.534134903 59.0
67.560395468 39.0
67.586656034 42.0
67.612916599 38.0
67.639177164 39.0
67.665437730 40.0
67.691698295 38.0
67.717958860 30.0
67.744219426 44.0
67.770479991 43.0
67.796740556 30.0
67.823001122 42.0
67.849261687 27.0
67.875522252 28.0
67.901782818 28.0
67.928043383 30.0
67.954303949 24.0
67.980564514 25.0
68.006825079 27.0
68.033085645 22.0
68.059346210 21.0
68.085606775 22.0
68.111867341 26.0
68.138127906 50.0
68.164388471 29.0
68.190649037 31.0
68.216909602 30.0
68.243170167 28.0
68.269430733 43.0
68.295691298 35.0
68.321951863 33.0
68.348212429 34.0
68.374472994 40.0
68.400733560 38.0
68.426994125 39.0
68.453254690 36.0
68.479515256 38.0
68.505775821 35.0
68.532036386 56.0
68.558296952 37.0
68.584557517 43.0
68.610818082 42.0
68.637078648 31.0
68.663339213 36.0
68.689599778 28.0
68.715860344 38.0
68.742120909 28.0
68.768381474 37.0
68.794642040 28.0
68.820902605 32.0
68.847163171 42.0
68.873423736 40.0
68.899684301 38.0
68.925944867 35.0
68.952205432 28.0
68.978465997 38.0
69.004726563 24.0
69.030987128 36.0
69.057247693 34.0
69.083508259 36.0
69.109768824 34.0
69.136029389 28.0
69.162289955 31.0
69.188550520 34.0
69.214811086 28.0
69.241071651 25.0
69.267332216 38.0
69.293592782 42.0
69.319853347 29.0
69.346113912 33.0
69.372374478 31.0
69.398635043 36.0
69.424895608 29.0
69.451156174 29.0
69.477416739 37.0
69.503677304 27.0
69.529937870 24.0
69.556198435 33.0
69.582459000 32.0
69.608719566 28.0
69.634980131 39.0
69.661240697 38.0
69.687501262 32.0
69.713761827 29.0
69.740022393 30.0
69.766282958 36.0
69.792543523 30.0
69.818804089 28.0
69.845064654 27.0
69.871325219 29.0
69.897585785 40.0
69.923846350 36.0
69.950106915 34.0
69.976367481 28.0
70.002628046 29.0
70.028888611 32.0
70.055149177 27.0
70.081409742 26.0
70.107670308 30.0
70.133930873 20.0
70.160191438 20.0
70.186452004 21.0
70.212712569 34.0
70.238973134 34.0
70.265233700 30.0
70.291494265 35.0
70.317754830 35.0
70.344015396 38.0
70.370275961 27.0
70.396536526 41.0
70.422797092 19.0
70.449057657 39.0
70.475318222 26.0
70.501578788 32.0
70.527839353 40.0
70.554099919 32.0
70.580360484 33.0
70.606621049 32.0
70.632881615 30.0
70.659142180 30.0
70.685402745 30.0
70.711663311 23.0
70.737923876 39.0
70.764184441 32.0
70.790445007 28.0
70.816705572 33.0
70.842966137 27.0
70.869226703 29.0
70.895487268 30.0
70.921747833 27.0
70.948008399 25.0
70.974268964 38.0
71.000529530 28.0
71.026790095 25.0
71.053050660 33.0
71.079311226 29.0
71.105571791 34.0
71.131832356 27.0
71.158092922 29.0
71.184353487 25.0
71.210614052 28.0
71.236874618 38.0
71.263135183 28.0
71.289395748 32.0
71.315656314 41.0
71.341916879 23.0
71.368177444 26.0
71.394438010 42.0
71.420698575 38.0
71.446959141 29.0
71.473219706 31.0
71.499480271 38.0
71.525740837 43.0
71.552001402 39.0
71.578261967 45.0
71.604522533 31.0
71.630783098 37.0
71.657043663 28.0
71.683304229 27.0
71.709564794 27.0
71.735825359 24.0
71.762085925 34.0
71.788346490 29.0
71.814607055 35.0
71.840867621 34.0
71.867128186 38.0
71.893388752 37.0
71.919649317 27.0
71.945909882 41.0
71.972170448 30.0
71.998431013 22.0
72.024691578 27.0
72.050952144 33.0
72.077212709 25.0
72.103473274 27.0
72.129733840 30.0
72.155994405 36.0
72.182254970 29.0
72.208515536 26.0
72.234776101 19.0
72.261036666 19.0
72.287297232 16.0
72.313557797 26.0
72.339818363 27.0
72.366078928 31.0
72.392339493 29.0
72.418600059 30.0
72.444860624 20.0
72.471121189 33.0
72.497381755 28.0
72.523642320 41.0
72.549902885 30.0
72.576163451 36.0
72.602424016 37.0
72.628684581 26.0
72.654945147 39.0
72.681205712 23.0
72.707466277 28.0
72.733726843 27.0
72.759987408 29.0
72.786247974 30.0
72.812508539 30.0
72.838769104 29.0
72.865029670 31.0
72.891290235 28.0
72.917550800 22.0
72.943811366 23.0
72.970071931 28.0
72.996332496 29.0
73.022593062 34.0
73.048853627 30.0
73.075114192 34.0
73.101374758 23.0
73.127635323 27.0
73.153895889 20.0
73.180156454 24.0
73.206417019 29.0
73.232677585 33.0
73.258938150 28.0
73.285198715 25.0
73.311459281 34.0
73.337719846 31.0
73.363980411 24.0
73.390240977 32.0
73.416501542 25.0
73.442762107 24.0
73.469022673 18.0
73.495283238 24.0
73.521543803 24.0
73.547804369 36.0
73.574064934 34.0
73.600325500 28.0
73.626586065 24.0
73.652846630 25.0
73.679107196 32.0
73.705367761 11.0
73.731628326 27.0
73.757888892 33.0
73.784149457 22.0
73.810410022 30.0
73.836670588 17.0
73.862931153 27.0
73.889191718 26.0
73.915452284 27.0
73.941712849 21.0
73.967973414 26.0
73.994233980 30.0
74.020494545 25.0
74.046755111 32.0
74.073015676 21.0
74.099276241 23.0
74.125536807 25.0
74.151797372 27.0
74.178057937 19.0
74.204318503 24.0
74.230579068 28.0
74.256839633 20.0
74.283100199 21.0
74.309360764 23.0
74.335621329 27.0
74.361881895 31.0
74.388142460 32.0
74.414403025 29.0
74.440663591 28.0
74.466924156 18.0
74.493184722 21.0
74.519445287 22.0
74.545705852 33.0
74.571966418 33.0
74.598226983 21.0
74.624487548 24.0
74.650748114 27.0
74.677008679 23.0
74.703269244 25.0
74.729529810 22.0
74.755790375 35.0
74.782050940 25.0
74.808311506 21.0
74.834572071 26.0
74.860832636 24.0
74.887093202 36.0
74.913353767 26.0
74.939614333 23.0
74.965874898 26.0
74.992135463 24.0
75.018396029 18.0
75.044656594 21.0
75.070917159 24.0
75.097177725 27.0
75.123438290 27.0
75.149698855 31.0
75.175959421 24.0
75.202219986 31.0
75.228480551 25.0
75.254741117 23.0
75.281001682 21.0
75.307262247 28.0
75.333522813 26.0
75.359783378 29.0
75.386043944 17.0
75.412304509 27.0
75.438565074 26.0
75.464825640 26.0
75.491086205 39.0
75.517346770 29.0
75.543607336 26.0
75.569867901 15.0
75.596128466 26.0
75.622389032 22.0
75.648649597 20.0
75.674910162 26.0
75.701170728 26.0
75.727431293 33.0
75.753691858 34.0
75.779952424 24.0
75.806212989 24.0
75.832473555 33.0
75.858734120 27.0
75.884994685 25.0
75.911255251 23.0
75.937515816 32.0
75.963776381 28.0
75.990036947 23.0
76.016297512 28.0
76.042558077 19.0
76.068818643 27.0
76.095079208 17.0
76.121339773 13.0
76.147600339 32.0
76.173860904 27.0
76.200121469 35.0
76.226382035 23.0
76.252642600 32.0
76.278903166 23.0
76.305163731 21.0
76.331424296 26.0
76.357684862 24.0
76.383945427 27.0
76.410205992 22.0
76.436466558 21.0
76.462727123 26.0
76.488987688 29.0
76.515248254 30.0
76.541508819 27.0
76.567769384 25.0
76.594029950 27.0
76.620290515 32.0
76.646551081 24.0
76.672811646 22.0
76.699072211 32.0
76.725332777 26.0
76.751593342 25.0
76.777853907 30.0
76.804114473 15.0
76.830375038 29.0
76.856635603 18.0
76.882896169 28.0
76.909156734 21.0
76.935417299 25.0
76.961677865 29.0
76.987938430 17.0
77.014198995 27.0
77.040459561 32.0
77.066720126 19.0
77.092980692 30.0
77.119241257 32.0
77.145501822 34.0
77.171762388 25.0
77.198022953 25.0
77.224283518 22.0
77.250544084 27.0
77.276804649 32.0
77.303065214 27.0
77.329325780 41.0
77.355586345 20.0
77.381846910 26.0
77.408107476 25.0
77.434368041 25.0
77.460628606 22.0
77.486889172 27.0
77.513149737 22.0
77.539410303 31.0
77.565670868 28.0
77.591931433 31.0
77.618191999 26.0
77.644452564 26.0
77.670713129 18.0
77.696973695 15.0
77.723234260 24.0
77.749494825 26.0
77.775755391 25.0
77.802015956 23.0
77.828276521 21.0
77.854537087 37.0
77.880797652 25.0
77.907058217 21.0
77.933318783 31.0
77.959579348 28.0
77.985839914 25.0
78.012100479 32.0
78.038361044 25.0
78.064621610 26.0
78.090882175 24.0
78.117142740 22.0
78.143403306 34.0
78.169663871 28.0
78.195924436 24.0
78.222185002 33.0
78.248445567 19.0
78.274706132 27.0
78.300966698 22.0
78.327227263 26.0
78.353487828 32.0
78.379748394 19.0
78.406008959 32.0
78.432269525 31.0
78.458530090 28.0
78.484790655 27.0
78.511051221 20.0
78.537311786 28.0
78.563572351 23.0
78.589832917 18.0
78.616093482 29.0
78.642354047 29.0
78.668614613 30.0
78.694875178 23.0
78.721135743 22.0
78.747396309 29.0
78.773656874 26.0
78.799917439 29.0
78.826178005 21.0
78.852438570 41.0
78.878699136 31.0
78.904959701 22.0
78.931220266 30.0
78.957480832 24.0
78.983741397 24.0
79.010001962 36.0
79.036262528 25.0
79.062523093 26.0
79.088783658 27.0
79.115044224 36.0
79.141304789 39.0
79.167565354 25.0
79.193825920 32.0
79.220086485 23.0
79.246347050 27.0
79.272607616 35.0
79.298868181 27.0
79.325128747 31.0
79.351389312 26.0
79.377649877 29.0
79.403910443 38.0
79.430171008 38.0
79.456431573 24.0
79.482692139 32.0
79.508952704 32.0
79.535213269 24.0
79.561473835 38.0
79.587734400 32.0
79.613994965 33.0
79.640255531 29.0
79.666516096 29.0
79.692776661 33.0
79.719037227 32.0
79.745297792 40.0
79.771558358 27.0
79.797818923 28.0
79.824079488 34.0
79.850340054 21.0
79.876600619 39.0
79.902861184 31.0
79.929121750 27.0
79.955382315 37.0
79.981642880 39.0
80.007903446 34.0
80.034164011 40.0
80.060424576 27.0
80.086685142 34.0
80.112945707 19.0
80.139206272 30.0
80.165466838 47.0
80.191727403 30.0
80.217987969 45.0
80.244248534 36.0
80.270509099 30.0
80.296769665 39.0
80.323030230 30.0
80.349290795 28.0
80.375551361 34.0
80.401811926 36.0
80.428072491 33.0
80.454333057 34.0
80.480593622 14.0
80.506854187 42.0
80.533114753 23.0
80.559375318 32.0
80.585635884 26.0
80.611896449 22.0
80.638157014 30.0
80.664417580 31.0
80.690678145 24.0
80.716938710 29.0
80.743199276 27.0
80.769459841 18.0
80.795720406 32.0
80.821980972 25.0
80.848241537 29.0
80.874502102 31.0
80.900762668 22.0
80.927023233 35.0
80.953283798 26.0
80.979544364 24.0
81.005804929 20.0
81.032065495 18.0
81.058326060 31.0
81.084586625 34.0
81.110847191 26.0
81.137107756 30.0
81.163368321 19.0
81.189628887 30.0
81.215889452 28.0
81.242150017 25.0
81.268410583 27.0
81.294671148 36.0
81.320931713 31.0
81.347192279 31.0
81.373452844 27.0
81.399713409 23.0
81.425973975 32.0
81.452234540 29.0
81.478495106 35.0
81.504755671 29.0
81.531016236 38.0
81.557276802 19.0
81.583537367 19.0
81.609797932 33.0
81.636058498 30.0
81.662319063 24.0
81.688579628 35.0
81.714840194 25.0
81.741100759 28.0
81.767361324 26.0
81.793621890 26.0
81.819882455 36.0
81.846143020 41.0
81.872403586 30.0
81.898664151 41.0
81.924924717 22.0
81.951185282 30.0
81.977445847 25.0
82.003706413 27.0
82.029966978 34.0
82.056227543 31.0
82.082488109 33.0
82.108748674 29.0
82.135009239 40.0
82.161269805 30.0
82.187530370 38.0
82.213790935 28.0
82.240051501 29.0
82.266312066 37.0
82.292572631 30.0
82.318833197 27.0
82.345093762 32.0
82.371354328 31.0
82.397614893 28.0
82.423875458 33.0
82.450136024 27.0
82.476396589 26.0
82.502657154 15.0
82.528917720 27.0
82.555178285 30.0
82.581438850 29.0
82.607699416 28.0
82.633959981 21.0
82.660220546 34.0
82.686481112 33.0
82.712741677 15.0
82.739002242 28.0
82.765262808 29.0
82.791523373 26.0
82.817783939 25.0
82.844044504 26.0
82.870305069 19.0
82.896565635 35.0
82.922826200 28.0
82.949086765 26.0
82.975347331 25.0
83.001607896 24.0
83.027868461 31.0
83.054129027 34.0
83.080389592 26.0
83.106650157 35.0
83.132910723 23.0
83.159171288 31.0
83.185431853 32.0
83.211692419 27.0
83.237952984 31.0
83.264213550 36.0
83.290474115 29.0
83.316734680 30.0
83.342995246 40.0
83.369255811 40.0
83.395516376 35.0
83.421776942 35.0
83.448037507 34.0
83.474298072 32.0
83.500558638 31.0
83.526819203 50.0
83.553079768 42.0
83.579340334 39.0
83.605600899 29.0
83.631861464 43.0
83.658122030 34.0
83.684382595 47.0
83.710643161 54.0
83.736903726 34.0
83.763164291 34.0
83.789424857 36.0
83.815685422 38.0
83.841945987 30.0
83.868206553 35.0
83.894467118 30.0
83.920727683 38.0
83.946988249 41.0
83.973248814 42.0
83.999509379 31.0
84.025769945 38.0
84.052030510 45.0
84.078291075 52.0
84.104551641 39.0
84.130812206 30.0
84.157072772 34.0
84.183333337 40.0
84.209593902 36.0
84.235854468 30.0
84.262115033 35.0
84.288375598 36.0
84.314636164 21.0
84.340896729 29.0
84.367157294 38.0
84.393417860 24.0
84.419678425 39.0
84.445938990 36.0
84.472199556 31.0
84.498460121 26.0
84.524720687 32.0
84.550981252 32.0
84.577241817 40.0
84.603502383 19.0
84.629762948 26.0
84.656023513 27.0
84.682284079 33.0
84.708544644 33.0
84.734805209 38.0
84.761065775 33.0
84.787326340 32.0
84.813586905 23.0
84.839847471 38.0
84.866108036 36.0
84.892368601 30.0
84.918629167 23.0
84.944889732 34.0
84.971150298 41.0
84.997410863 21.0
85.023671428 32.0
85.049931994 30.0
85.076192559 28.0
85.102453124 35.0
85.128713690 34.0
85.154974255 35.0
85.181234820 30.0
85.207495386 33.0
85.233755951 39.0
85.260016516 30.0
85.286277082 40.0
85.312537647 48.0
85.338798212 40.0
85.365058778 35.0
85.391319343 36.0
85.417579909 27.0
85.443840474 35.0
85.470101039 35.0
85.496361605 30.0
85.522622170 45.0
85.548882735 52.0
85.575143301 39.0
85.601403866 51.0
85.627664431 37.0
85.653924997 43.0
85.680185562 39.0
85.706446127 39.0
85.732706693 34.0
85.758967258 39.0
85.785227823 39.0
85.811488389 34.0
85.837748954 45.0
85.864009520 42.0
85.890270085 37.0
85.916530650 32.0
85.942791216 33.0
85.969051781 35.0
85.995312346 29.0
86.021572912 25.0
86.047833477 38.0
86.074094042 28.0
86.100354608 33.0
86.126615173 23.0
86.152875738 35.0
86.179136304 37.0
86.205396869 21.0
86.231657434 36.0
86.257918000 29.0
86.284178565 36.0
86.310439131 30.0
86.336699696 42.0
86.362960261 65.0
86.389220827 40.0
86.415481392 37.0
86.441741957 47.0
86.468002523 42.0
86.494263088 22.0
86.520523653 45.0
86.546784219 42.0
86.573044784 33.0
86.599305349 41.0
86.625565915 34.0
86.651826480 35.0
86.678087045 34.0
86.704347611 35.0
86.730608176 40.0
86.756868742 24.0
86.783129307 40.0
86.809389872 36.0
86.835650438 30.0
86.861911003 29.0
86.888171568 41.0
86.914432134 31.0
86.940692699 22.0
86.966953264 26.0
86.993213830 28.0
87.019474395 30.0
87.045734960 35.0
87.071995526 33.0
87.098256091 22.0
87.124516656 30.0
87.150777222 21.0
87.177037787 33.0
87.203298353 23.0
87.229558918 16.0
87.255819483 27.0
87.282080049 37.0
87.308340614 13.0
87.334601179 23.0
87.360861745 30.0
87.387122310 33.0
87.413382875 28.0
87.439643441 20.0
87.465904006 30.0
87.492164571 20.0
87.518425137 20.0
87.544685702 23.0
87.570946267 22.0
87.597206833 30.0
87.623467398 28.0
87.649727964 26.0
87.675988529 20.0
87.702249094 26.0
87.728509660 22.0
87.754770225 33.0
87.781030790 17.0
87.807291356 29.0
87.833551921 26.0
87.859812486 18.0
87.886073052 40.0
87.912333617 24.0
87.938594182 25.0
87.964854748 29.0
87.991115313 30.0
88.017375878 29.0
88.043636444 20.0
88.069897009 37.0
88.096157575 35.0
88.122418140 20.0
88.148678705 23.0
88.174939271 28.0
88.201199836 30.0
88.227460401 31.0
88.253720967 35.0
88.279981532 25.0
88.306242097 24.0
88.332502663 25.0
88.358763228 30.0
88.385023793 29.0
88.411284359 33.0
88.437544924 20.0
88.463805490 27.0
88.490066055 27.0
88.516326620 23.0
88.542587186 25.0
88.568847751 35.0
88.595108316 31.0
88.621368882 26.0
88.647629447 32.0
88.673890012 24.0
88.700150578 15.0
88.726411143 30.0
88.752671708 30.0
88.778932274 34.0
88.805192839 23.0
88.831453404 24.0
88.857713970 29.0
88.883974535 28.0
88.910235101 21.0
88.936495666 17.0
88.962756231 34.0
88.989016797 23.0
89.015277362 34.0
89.041537927 35.0
89.067798493 20.0
89.094059058 20.0
89.120319623 28.0
89.146580189 27.0
89.172840754 37.0
89.199101319 19.0
89.225361885 35.0
89.251622450 27.0
89.277883015 28.0
89.304143581 37.0
89.330404146 29.0
89.356664712 25.0
89.382925277 26.0
89.409185842 33.0
89.435446408 27.0
89.461706973 28.0
89.487967538 33.0
89.514228104 27.0
89.540488669 23.0
89.566749234 24.0
89.593009800 31.0
89.619270365 21.0
89.645530930 19.0
89.671791496 27.0
89.698052061 37.0
89.724312626 23.0
89.750573192 20.0
89.776833757 33.0
89.803094323 35.0
89.829354888 25.0
89.855615453 50.0
89.881876019 34.0
89.908136584 27.0
89.934397149 33.0
89.960657715 37.0
89.986918280 39.0
