$$ -----------------------
$$ Labels defined by JCAMP
$$ -----------------------

## TITLE= Unknown
## JCAMP-DX= 4.24
## DATA TYPE= RD
## BLOCKS= 1
## ORIGIN= PANalytical B.V.
## OWNER= Copyright(C) 2004 by PANalytical B.V.
## DATE= 26/02/17
## TIME= 15:35:29
## SAMPLE DESCRIPTION= 
## SOURCE REFERENCE= Converted XRDML file
##= Configuration=Flat Sample Stage, Owner=pc, Creation date=11/22/2023 7:32:59 PM
Goniometer=Theta/Theta; Minimum step size 2Theta:0.0001; Minimum step size Omega:0.0001
Sample stage=Stage for flat samples/holders
Diffractometer system=EMPYREAN
Measurement program=C:\PANalytical\Data Collector\Programs\Fiber.xrdmp, Created identifier={E8C07BD7-8A8C-42E2-8622-4BC130302805}, Created by=pc, Id=WL:DESKTOP-BC0RBBD:pc, Creation date=1/6/2025 4:49:46 PM, Modified identifier={32F7A4C4-C999-46E4-852F-B36327219E96}, Modified by=pc, Id=WL:DESKTOP-BC0RBBD:pc, Modification date=1/12/2026 4:17:19 PM

$$ ------------------------------------
$$ Labels defined by PANalytical
$$ ------------------------------------

$$ Wavelengths are given in Angstrom.
##$WAVELENGTH ALPHA1= 1.5405980
##$WAVELENGTH ALPHA2= 1.5444260
##$INTENSITY RATIO ALPHA2/ALPHA1= 0.5000000
##$MONOCHROMATOR= NO
##$GENERATOR VOLTAGE= 45
##$TUBE CURRENT= 40
##$ANODE MATERIAL= Cu
##$TUBE FOCUS= LONG FINE
##$SCAN TYPE= CONTINUOUS
##$COUNT TIME= 7.140
##$DIVERGENCE SLIT= 0.71974

$$ -----------------------------------------------------
$$ Labels defined by PANalytical for PC-APD files
$$ -----------------------------------------------------

##$DIFFRACTOMETER= XPERT

$$ ------------------------------------------------------
$$ Labels defined by PANalytical for APD1700 files
$$ ------------------------------------------------------

##$TAKE OFF ANGLE= 7.600
##$DETECTOR TYPE= PIXcel1D-Medipix3 detector
##$SCATTER SLIT= 2.00

$$ -----------------------
$$ Labels defined by JCAMP
$$ -----------------------

## XUNITS= TWO-THETA
## YUNITS= COUNTS
## XFACTOR= 1.0
## YFACTOR= 1.0
## FIRSTX= 6.0056303
## LASTX= 89.9869183
## DELTAX= 0.0262606
## NPOINTS= 3199
## FIRSTY= 343.000
## MINX= 6.00563
## MAXX= 89.98692
## MINY= 12.000
## MAXY= 749.000
## XYDATA= X++<Y..Y>
    6.0056      343.000      282.000      310.000      299.000      331.000
    6.1369      344.000      301.000      321.000      288.000      318.000
    6.2682      287.000      278.000      312.000      301.000      310.000
    6.3995      303.000      297.000      302.000      285.000      282.000
    6.5308      251.000      254.000      285.000      324.000      286.000
    6.6621      274.000      268.000      243.000      286.000      310.000
    6.7934      268.000      298.000      274.000      284.000      275.000
    6.9248      288.000      255.000      286.000      284.000      276.000
    7.0561      255.000      269.000      272.000      257.000      261.000
    7.1874      287.000      268.000      247.000      312.000      280.000
    7.3187      252.000      262.000      255.000      248.000      248.000
    7.4500      262.000      262.000      264.000      265.000      266.000
    7.5813      247.000      251.000      257.000      258.000      243.000
    7.7126      247.000      243.000      250.000      253.000      242.000
    7.8439      246.000      223.000      223.000      260.000      253.000
    7.9752      247.000      260.000      232.000      235.000      246.000
    8.1065      249.000      247.000      238.000      244.000      250.000
    8.2378      275.000      225.000      227.000      265.000      225.000
    8.3691      240.000      228.000      238.000      205.000      257.000
    8.5004      238.000      203.000      233.000      218.000      238.000
    8.6317      224.000      209.000      222.000      235.000      228.000
    8.7630      223.000      241.000      223.000      234.000      206.000
    8.8943      207.000      225.000      237.000      224.000      219.000
    9.0256      210.000      208.000      227.000      223.000      226.000
    9.1569      226.000      209.000      191.000      182.000      204.000
    9.2882      201.000      215.000      220.000      229.000      217.000
    9.4195      217.000      236.000      207.000      210.000      204.000
    9.5508      192.000      191.000      208.000      215.000      191.000
    9.6821      192.000      237.000      202.000      210.000      208.000
    9.8134      204.000      205.000      214.000      190.000      221.000
    9.9447      201.000      210.000      223.000      190.000      194.000
   10.0760      211.000      174.000      164.000      178.000      209.000
   10.2073      196.000      188.000      196.000      188.000      199.000
   10.3386      193.000      190.000      188.000      209.000      182.000
   10.4699      214.000      192.000      189.000      189.000      207.000
   10.6012      183.000      186.000      202.000      174.000      195.000
   10.7325      173.000      174.000      171.000      194.000      182.000
   10.8638      186.000      174.000      174.000      194.000      164.000
   10.9951      186.000      192.000      187.000      194.000      184.000
   11.1264      180.000      153.000      165.000      191.000      197.000
   11.2577      173.000      166.000      168.000      170.000      193.000
   11.3890      151.000      167.000      135.000      178.000      176.000
   11.5203      157.000      172.000      165.000      167.000      185.000
   11.6517      163.000      166.000      165.000      183.000      192.000
   11.7830      234.000      233.000      225.000      247.000      225.000
   11.9143      189.000      154.000      186.000      176.000      162.000
   12.0456      153.000      165.000      139.000      165.000      168.000
   12.1769      157.000      154.000      170.000      199.000      171.000
   12.3082      177.000      177.000      191.000      161.000      178.000
   12.4395      158.000      140.000      137.000      134.000      163.000
   12.5708      153.000      147.000      143.000      169.000      146.000
   12.7021      142.000      149.000      149.000      153.000      143.000
   12.8334      155.000      155.000      158.000      138.000      165.000
   12.9647      134.000      151.000      133.000      159.000      157.000
   13.0960      138.000      147.000      142.000      158.000      147.000
   13.2273      144.000      152.000      117.000      125.000      156.000
   13.3586      133.000      150.000      144.000      151.000      147.000
   13.4899      172.000      137.000      137.000      155.000      125.000
   13.6212      133.000      155.000      139.000      136.000      116.000
   13.7525      119.000      138.000      122.000      134.000      144.000
   13.8838      128.000      124.000      114.000      139.000      147.000
   14.0151      131.000      137.000      137.000      126.000      131.000
   14.1464      131.000      118.000      132.000      143.000      146.000
   14.2777      153.000      142.000      125.000      104.000      124.000
   14.4090      118.000      111.000      116.000      116.000      132.000
   14.5403      131.000      107.000      123.000      107.000      120.000
   14.6716      123.000      138.000      128.000      121.000      118.000
   14.8029      139.000      118.000      130.000      126.000      132.000
   14.9342      117.000      147.000      130.000      131.000      141.000
   15.0655      158.000      154.000      148.000      136.000      127.000
   15.1968      129.000      116.000      101.000      129.000      131.000
   15.3281      151.000      122.000      120.000      120.000      132.000
   15.4594      121.000      117.000      111.000      106.000      110.000
   15.5907      108.000      132.000      117.000      129.000      103.000
   15.7220      113.000      146.000      133.000      107.000      114.000
   15.8533      129.000      104.000      113.000      118.000      117.000
   15.9846      124.000      115.000      116.000      107.000      107.000
   16.1159      107.000       88.000      116.000      119.000      112.000
   16.2473       97.000      110.000      110.000      119.000       96.000
   16.3786      125.000      114.000      108.000      114.000       94.000
   16.5099      127.000      106.000      110.000      103.000      108.000
   16.6412      104.000       94.000      105.000      106.000       83.000
   16.7725       94.000       88.000       96.000      113.000       84.000
   16.9038       91.000      105.000       94.000       94.000       98.000
   17.0351      110.000      108.000      105.000       97.000      100.000
   17.1664       97.000      109.000       93.000      104.000       95.000
   17.2977       89.000      103.000      111.000      117.000      120.000
   17.4290       98.000      104.000       93.000       91.000      117.000
   17.5603      106.000      110.000      108.000      108.000      100.000
   17.6916      108.000       91.000      107.000      107.000       95.000
   17.8229       97.000       76.000      103.000       97.000      103.000
   17.9542       91.000       94.000       92.000       84.000      105.000
   18.0855      101.000      105.000       91.000      103.000       93.000
   18.2168       92.000      120.000       97.000       83.000      103.000
   18.3481      100.000       83.000       58.000       98.000       91.000
   18.4794       87.000      101.000       98.000       79.000       97.000
   18.6107       73.000       75.000       82.000       90.000       98.000
   18.7420       92.000       73.000       98.000       89.000       77.000
   18.8733       80.000      101.000       81.000       85.000      105.000
   19.0046       77.000      101.000       94.000       96.000      101.000
   19.1359       91.000       90.000       74.000       87.000       98.000
   19.2672       70.000       69.000       82.000       82.000       98.000
   19.3985       99.000       82.000       83.000       75.000       87.000
   19.5298       64.000       90.000       91.000       78.000       95.000
   19.6611       83.000      106.000       86.000       73.000       79.000
   19.7924       85.000       81.000       77.000       91.000       85.000
   19.9237       80.000       97.000       72.000       75.000       73.000
   20.0550       80.000       75.000       72.000       81.000       85.000
   20.1863       71.000       84.000       79.000       83.000       71.000
   20.3176       87.000       78.000       90.000       76.000       75.000
   20.4489       81.000       77.000       70.000       58.000       68.000
   20.5802       78.000       84.000       85.000       77.000       84.000
   20.7115       61.000       80.000       89.000       86.000       84.000
   20.8428      104.000       89.000      127.000      107.000      118.000
   20.9742      128.000       99.000       91.000       91.000       81.000
   21.1055       96.000       83.000       59.000       79.000       74.000
   21.2368       75.000       73.000       75.000       68.000       65.000
   21.3681       71.000       89.000       77.000       81.000       74.000
   21.4994       70.000       67.000       77.000       77.000       74.000
   21.6307       76.000       68.000       64.000       81.000       67.000
   21.7620       69.000       67.000       74.000       67.000       94.000
   21.8933       68.000       72.000       74.000       68.000       64.000
   22.0246       76.000       77.000       64.000       80.000       73.000
   22.1559       78.000       82.000       44.000       81.000       65.000
   22.2872       62.000       72.000       59.000       59.000       78.000
   22.4185       74.000       62.000       80.000       65.000       67.000
   22.5498       48.000       70.000       67.000       69.000       71.000
   22.6811       65.000       78.000       60.000       70.000       65.000
   22.8124       61.000       64.000       63.000       76.000       66.000
   22.9437       90.000       74.000       82.000       76.000       81.000
   23.0750       83.000      100.000      110.000      101.000       93.000
   23.2063      118.000      100.000       85.000       84.000       92.000
   23.3376       83.000       69.000       74.000       71.000       78.000
   23.4689       64.000       62.000       87.000       75.000       83.000
   23.6002       97.000       80.000       77.000       94.000       61.000
   23.7315       54.000       40.000       61.000       65.000       55.000
   23.8628       64.000       61.000       59.000       60.000       69.000
   23.9941       57.000       60.000       61.000       60.000       62.000
   24.1254       61.000       62.000       60.000       75.000       55.000
   24.2567       62.000       44.000       65.000       57.000       65.000
   24.3880       62.000       82.000       81.000       61.000       68.000
   24.5193       79.000       75.000       80.000       74.000       62.000
   24.6506       57.000       68.000       73.000       55.000       49.000
   24.7819       51.000       58.000       48.000       50.000       64.000
   24.9132       53.000       74.000       53.000       49.000       56.000
   25.0445       53.000       50.000       72.000       58.000       50.000
   25.1758       73.000       63.000       47.000       65.000       54.000
   25.3071       74.000       66.000       78.000       82.000       80.000
   25.4384       71.000       87.000       78.000       74.000       72.000
   25.5698       68.000       76.000       49.000       56.000       51.000
   25.7011       45.000       55.000       61.000       62.000       58.000
   25.8324       58.000       64.000       68.000       57.000       52.000
   25.9637       63.000       61.000       67.000       71.000       48.000
   26.0950       80.000       56.000       69.000       48.000       58.000
   26.2263       51.000       42.000       46.000       53.000       55.000
   26.3576       61.000       61.000       52.000       72.000       55.000
   26.4889       74.000       70.000       66.000       58.000       62.000
   26.6202       47.000       70.000       61.000       58.000       58.000
   26.7515       69.000       67.000       72.000       60.000       69.000
   26.8828       67.000       35.000       61.000       54.000       40.000
   27.0141       69.000       54.000       47.000       49.000       46.000
   27.1454       50.000       53.000       57.000       38.000       56.000
   27.2767       48.000       56.000       46.000       65.000       51.000
   27.4080       72.000       62.000       52.000       60.000       55.000
   27.5393       54.000       56.000       55.000       65.000       65.000
   27.6706       56.000       60.000       68.000       51.000       59.000
   27.8019       61.000       57.000       62.000       56.000       55.000
   27.9332       62.000       52.000       75.000       66.000       63.000
   28.0645       51.000       75.000       71.000       72.000       75.000
   28.1958       67.000       77.000       70.000       79.000       78.000
   28.3271       58.000       77.000       68.000       57.000       60.000
   28.4584       71.000       52.000       69.000       55.000       52.000
   28.5897       67.000       56.000       55.000       40.000       64.000
   28.7210       58.000       48.000       63.000       55.000       55.000
   28.8523       65.000       51.000       50.000       76.000       60.000
   28.9836       55.000       47.000       57.000       52.000       56.000
   29.1149       70.000       72.000       67.000       76.000       77.000
   29.2462       91.000       89.000      122.000      102.000      112.000
   29.3775      113.000      121.000      111.000      103.000      133.000
   29.5088      191.000      235.000      314.000      382.000      445.000
   29.6401      419.000      519.000      489.000      363.000      286.000
   29.7714      231.000      168.000      113.000       62.000       69.000
   29.9027       71.000       79.000       60.000       70.000       59.000
   30.0340       70.000       68.000       52.000       60.000       74.000
   30.1654       68.000       91.000      114.000      126.000      162.000
   30.2967      176.000      185.000      189.000      122.000      107.000
   30.4280       87.000       67.000       61.000       50.000       54.000
   30.5593       46.000       55.000       44.000       47.000       54.000
   30.6906       51.000       50.000       49.000       47.000       46.000
   30.8219       66.000       41.000       47.000       48.000       61.000
   30.9532       64.000       52.000       58.000       57.000       67.000
   31.0845       62.000       71.000       79.000       68.000       77.000
   31.2158       79.000       81.000       77.000       88.000       71.000
   31.3471       75.000       69.000       55.000       66.000       57.000
   31.4784       56.000       60.000       46.000       53.000       65.000
   31.6097       69.000       56.000       59.000       58.000       76.000
   31.7410       69.000       66.000       76.000       61.000       72.000
   31.8723       71.000       75.000       73.000       69.000       88.000
   32.0036       79.000       75.000       96.000       87.000      102.000
   32.1349       92.000      108.000      118.000      115.000      170.000
   32.2662      176.000      229.000      271.000      322.000      413.000
   32.3975      536.000      714.000      749.000      623.000      501.000
   32.5288      425.000      335.000      254.000      222.000      263.000
   32.6601      238.000      302.000      397.000      483.000      519.000
   32.7914      552.000      594.000      658.000      600.000      474.000
   32.9227      359.000      296.000      216.000      135.000      125.000
   33.0540      105.000      101.000      116.000      113.000      113.000
   33.1853      124.000      117.000      116.000      142.000      116.000
   33.3166      123.000      114.000      128.000      155.000      167.000
   33.4479      157.000      158.000      156.000      166.000      140.000
   33.5792      123.000      128.000      107.000      112.000      115.000
   33.7105      110.000      113.000      132.000      133.000      106.000
   33.8418      111.000      114.000      141.000      132.000      133.000
   33.9731      163.000      162.000      188.000      169.000      153.000
   34.1044      163.000      193.000      150.000      155.000      112.000
   34.2357      112.000      109.000      115.000      102.000      118.000
   34.3670      102.000      119.000      114.000      141.000      194.000
   34.4983      280.000      393.000      561.000      602.000      716.000
   34.6296      632.000      431.000      406.000      293.000      227.000
   34.7609      108.000       98.000       66.000       62.000       77.000
   34.8923       71.000       56.000       67.000       72.000       52.000
   35.0236       52.000       68.000       61.000       51.000       57.000
   35.1549       38.000       47.000       64.000       53.000       49.000
   35.2862       45.000       46.000       48.000       48.000       55.000
   35.4175       52.000       52.000       35.000       53.000       56.000
   35.5488       50.000       56.000       44.000       50.000       39.000
   35.6801       43.000       47.000       45.000       37.000       50.000
   35.8114       42.000       54.000       40.000       60.000       32.000
   35.9427       53.000       35.000       42.000       43.000       46.000
   36.0740       57.000       55.000       49.000       52.000       53.000
   36.2053       51.000       52.000       52.000       52.000       51.000
   36.3366       55.000       55.000       49.000       40.000       45.000
   36.4679       42.000       40.000       43.000       59.000       49.000
   36.5992       38.000       37.000       46.000       44.000       35.000
   36.7305       50.000       66.000       62.000       62.000       68.000
   36.8618       94.000      109.000       90.000       98.000      102.000
   36.9931       86.000       80.000       63.000       86.000       68.000
   37.1244       66.000       56.000       36.000       59.000       48.000
   37.2557       51.000       46.000       47.000       48.000       46.000
   37.3870       52.000       55.000       52.000       46.000       45.000
   37.5183       52.000       65.000       52.000       49.000       48.000
   37.6496       38.000       44.000       56.000       40.000       43.000
   37.7809       39.000       41.000       39.000       45.000       44.000
   37.9122       47.000       31.000       39.000       43.000       42.000
   38.0435       45.000       50.000       55.000       50.000       44.000
   38.1748       42.000       54.000       40.000       48.000       48.000
   38.3061       51.000       45.000       44.000       36.000       41.000
   38.4374       42.000       39.000       51.000       43.000       35.000
   38.5687       39.000       34.000       42.000       38.000       47.000
   38.7000       50.000       35.000       35.000       49.000       64.000
   38.8313       66.000       66.000       74.000       88.000      113.000
   38.9626      106.000      133.000      162.000      153.000      127.000
   39.0939      112.000      121.000       98.000       85.000       82.000
   39.2252       70.000       47.000       51.000       65.000       57.000
   39.3565       49.000       68.000       60.000       59.000       70.000
   39.4879       56.000       72.000       64.000       76.000       83.000
   39.6192       67.000       65.000       64.000       54.000       67.000
   39.7505       48.000       56.000       53.000       51.000       51.000
   39.8818       54.000       52.000       60.000       47.000       54.000
   40.0131       50.000       46.000       34.000       43.000       38.000
   40.1444       50.000       50.000       40.000       35.000       45.000
   40.2757       38.000       39.000       35.000       55.000       36.000
   40.4070       35.000       46.000       36.000       30.000       33.000
   40.5383       37.000       44.000       51.000       40.000       47.000
   40.6696       40.000       36.000       32.000       36.000       48.000
   40.8009       45.000       63.000       40.000       42.000       49.000
   40.9322       43.000       59.000       62.000       54.000       56.000
   41.0635       58.000       52.000       75.000       81.000       73.000
   41.1948       81.000       69.000       75.000       85.000       88.000
   41.3261       87.000      124.000      129.000      138.000      152.000
   41.4574      212.000      270.000      355.000      388.000      333.000
   41.5887      294.000      249.000      246.000      197.000      138.000
   41.7200      104.000       93.000      105.000       85.000      104.000
   41.8513      120.000      113.000      107.000       97.000      104.000
   41.9826       91.000       91.000       88.000       64.000       60.000
   42.1139       57.000       73.000       60.000       57.000       63.000
   42.2452       37.000       51.000       46.000       47.000       47.000
   42.3765       38.000       44.000       50.000       41.000       45.000
   42.5078       48.000       50.000       37.000       48.000       43.000
   42.6391       39.000       35.000       41.000       58.000       41.000
   42.7704       52.000       41.000       27.000       42.000       48.000
   42.9017       49.000       58.000       58.000       62.000       80.000
   43.0330       92.000      112.000      141.000      138.000      114.000
   43.1643      107.000      100.000       99.000       75.000       68.000
   43.2956       66.000       51.000       73.000       66.000       57.000
   43.4269       60.000       53.000       68.000       68.000       52.000
   43.5582       52.000       50.000       37.000       53.000       45.000
   43.6895       51.000       42.000       42.000       54.000       50.000
   43.8208       39.000       55.000       39.000       57.000       42.000
   43.9521       52.000       52.000       61.000       71.000       58.000
   44.0835       58.000       60.000       69.000       65.000       58.000
   44.2148       61.000       59.000       62.000       59.000       66.000
   44.3461       71.000       61.000       63.000       67.000       72.000
   44.4774       52.000       64.000       48.000       51.000       35.000
   44.6087       56.000       44.000       48.000       50.000       48.000
   44.7400       54.000       47.000       50.000       54.000       37.000
   44.8713       45.000       50.000       45.000       39.000       33.000
   45.0026       45.000       33.000       45.000       43.000       38.000
   45.1339       30.000       37.000       28.000       35.000       24.000
   45.2652       42.000       31.000       31.000       35.000       38.000
   45.3965       36.000       38.000       34.000       36.000       40.000
   45.5278       42.000       45.000       29.000       40.000       38.000
   45.6591       42.000       46.000       51.000       44.000       29.000
   45.7904       44.000       47.000       42.000       50.000       60.000
   45.9217       57.000       63.000       70.000       56.000       71.000
   46.0530       74.000       85.000       89.000       61.000       73.000
   46.1843       53.000       68.000       61.000       38.000       47.000
   46.3156       34.000       39.000       28.000       43.000       36.000
   46.4469       30.000       36.000       35.000       39.000       45.000
   46.5782       41.000       42.000       39.000       46.000       37.000
   46.7095       44.000       56.000       41.000       38.000       42.000
   46.8408       40.000       49.000       60.000       35.000       53.000
   46.9721       42.000       56.000       64.000       84.000       74.000
   47.1034       95.000      100.000      106.000      117.000      126.000
   47.2347      133.000      102.000      105.000       80.000       99.000
   47.3660       84.000       85.000       90.000       90.000       84.000
   47.4973       77.000       89.000       81.000       79.000       81.000
   47.6286       93.000       82.000       68.000       80.000       66.000
   47.7599       66.000       63.000       49.000       50.000       56.000
   47.8912       62.000       67.000       60.000       81.000       63.000
   48.0225       59.000       51.000       41.000       53.000       38.000
   48.1538       47.000       46.000       58.000       39.000       40.000
   48.2851       45.000       57.000       32.000       40.000       33.000
   48.4164       32.000       27.000       40.000       46.000       31.000
   48.5477       31.000       40.000       36.000       36.000       45.000
   48.6790       28.000       39.000       39.000       30.000       29.000
   48.8104       33.000       24.000       37.000       39.000       20.000
   48.9417       44.000       37.000       34.000       27.000       26.000
   49.0730       44.000       34.000       38.000       34.000       37.000
   49.2043       52.000       50.000       39.000       43.000       38.000
   49.3356       37.000       41.000       44.000       35.000       54.000
   49.4669       39.000       45.000       38.000       36.000       36.000
   49.5982       47.000       36.000       43.000       33.000       46.000
   49.7295       49.000       41.000       56.000       57.000       59.000
   49.8608       60.000       54.000       64.000       73.000       68.000
   49.9921       61.000       56.000       81.000       64.000       76.000
   50.1234       83.000       59.000       74.000       64.000       90.000
   50.2547       81.000       62.000       61.000       42.000       42.000
   50.3860       56.000       58.000       45.000       47.000       45.000
   50.5173       40.000       51.000       43.000       38.000       38.000
   50.6486       48.000       39.000       36.000       41.000       32.000
   50.7799       42.000       38.000       44.000       42.000       43.000
   50.9112       37.000       39.000       48.000       41.000       49.000
   51.0425       37.000       44.000       40.000       45.000       49.000
   51.1738       48.000       46.000       37.000       43.000       43.000
   51.3051       45.000       39.000       35.000       54.000       56.000
   51.4364       38.000       29.000       36.000       49.000       42.000
   51.5677       46.000       49.000       55.000       52.000       45.000
   51.6990       38.000       54.000       57.000       53.000       75.000
   51.8303      101.000      134.000      214.000      204.000      281.000
   51.9616      297.000      245.000      216.000      226.000      243.000
   52.0929      236.000      231.000      229.000      153.000      123.000
   52.2242       84.000       95.000       93.000       78.000       64.000
   52.3555       41.000       41.000       37.000       33.000       35.000
   52.4868       43.000       31.000       38.000       22.000       32.000
   52.6181       38.000       33.000       30.000       22.000       35.000
   52.7494       25.000       27.000       33.000       32.000       26.000
   52.8807       32.000       26.000       25.000       27.000       26.000
   53.0120       33.000       27.000       35.000       34.000       34.000
   53.1433       42.000       37.000       39.000       39.000       39.000
   53.2746       31.000       40.000       40.000       56.000       33.000
   53.4060       52.000       31.000       35.000       36.000       39.000
   53.5373       37.000       44.000       32.000       32.000       43.000
   53.6686       40.000       32.000       26.000       34.000       33.000
   53.7999       23.000       26.000       30.000       28.000       20.000
   53.9312       32.000       32.000       43.000       35.000       31.000
   54.0625       32.000       26.000       37.000       47.000       43.000
   54.1938       38.000       41.000       44.000       47.000       44.000
   54.3251       34.000       52.000       35.000       29.000       33.000
   54.4564       36.000       45.000       37.000       45.000       39.000
   54.5877       41.000       34.000       35.000       29.000       29.000
   54.7190       28.000       32.000       25.000       44.000       22.000
   54.8503       25.000       20.000       34.000       26.000       22.000
   54.9816       26.000       30.000       32.000       33.000       24.000
   55.1129       26.000       46.000       28.000       24.000       23.000
   55.2442       29.000       33.000       40.000       34.000       46.000
   55.3755       26.000       33.000       26.000       35.000       29.000
   55.5068       28.000       37.000       30.000       32.000       25.000
   55.6381       28.000       27.000       40.000       25.000       33.000
   55.7694       22.000       30.000       28.000       31.000       31.000
   55.9007       29.000       33.000       33.000       41.000       34.000
   56.0320       36.000       32.000       39.000       48.000       60.000
   56.1633       46.000       53.000       50.000       42.000       44.000
   56.2946       52.000       48.000       43.000       53.000       29.000
   56.4259       42.000       45.000       44.000       51.000       60.000
   56.5572       64.000       67.000      104.000      114.000      107.000
   56.6885      143.000      159.000      133.000      163.000      176.000
   56.8198      160.000      128.000      118.000      103.000       97.000
   56.9511       94.000       89.000       62.000       45.000       42.000
   57.0824       41.000       46.000       44.000       44.000       36.000
   57.2137       34.000       31.000       46.000       33.000       27.000
   57.3450       39.000       41.000       32.000       36.000       30.000
   57.4763       34.000       35.000       41.000       36.000       40.000
   57.6076       34.000       37.000       28.000       42.000       39.000
   57.7389       26.000       40.000       26.000       34.000       33.000
   57.8702       30.000       44.000       26.000       36.000       41.000
   58.0015       24.000       32.000       40.000       38.000       54.000
   58.1329       27.000       43.000       41.000       32.000       35.000
   58.2642       39.000       45.000       39.000       29.000       38.000
   58.3955       26.000       32.000       44.000       39.000       35.000
   58.5268       40.000       35.000       37.000       39.000       46.000
   58.6581       58.000       60.000       40.000       41.000       66.000
   58.7894       41.000       48.000       49.000       46.000       46.000
   58.9207       45.000       49.000       51.000       48.000       33.000
   59.0520       42.000       32.000       42.000       38.000       39.000
   59.1833       47.000       45.000       43.000       36.000       47.000
   59.3146       45.000       48.000       45.000       35.000       41.000
   59.4459       33.000       52.000       53.000       48.000       51.000
   59.5772       36.000       56.000       54.000       36.000       43.000
   59.7085       46.000       32.000       48.000       42.000       46.000
   59.8398       52.000       28.000       33.000       44.000       36.000
   59.9711       32.000       39.000       34.000       49.000       64.000
   60.1024       70.000       90.000       83.000      117.000      154.000
   60.2337      127.000      103.000       80.000       76.000       87.000
   60.3650      104.000       71.000       66.000       56.000       40.000
   60.4963       54.000       36.000       40.000       34.000       56.000
   60.6276       48.000       34.000       39.000       49.000       43.000
   60.7589       39.000       43.000       39.000       55.000       43.000
   60.8902       54.000       46.000       60.000       50.000       57.000
   61.0215       40.000       38.000       36.000       35.000       47.000
   61.1528       51.000       49.000       58.000       37.000       38.000
   61.2841       33.000       35.000       30.000       24.000       49.000
   61.4154       42.000       35.000       33.000       30.000       48.000
   61.5467       37.000       24.000       33.000       30.000       47.000
   61.6780       37.000       41.000       28.000       39.000       31.000
   61.8093       37.000       34.000       30.000       29.000       34.000
   61.9406       28.000       32.000       36.000       37.000       47.000
   62.0719       31.000       50.000       40.000       43.000       49.000
   62.2032       34.000       58.000       45.000       49.000       64.000
   62.3345       45.000       86.000      108.000      135.000      170.000
   62.4658      151.000      163.000      182.000      160.000      184.000
   62.5971      165.000      176.000      183.000      175.000      157.000
   62.7285      142.000      113.000      110.000       93.000       97.000
   62.8598       80.000       67.000       60.000       59.000       55.000
   62.9911       66.000       55.000       52.000       51.000       46.000
   63.1224       44.000       48.000       43.000       47.000       50.000
   63.2537       50.000       28.000       31.000       40.000       48.000
   63.3850       22.000       30.000       28.000       42.000       28.000
   63.5163       33.000       30.000       39.000       31.000       55.000
   63.6476       42.000       44.000       38.000       54.000       43.000
   63.7789       49.000       42.000       43.000       54.000       71.000
   63.9102       60.000       60.000       69.000       74.000       63.000
   64.0415       39.000       56.000       50.000       53.000       38.000
   64.1728       44.000       36.000       39.000       31.000       38.000
   64.3041       39.000       24.000       41.000       38.000       28.000
   64.4354       29.000       21.000       37.000       32.000       36.000
   64.5667       29.000       32.000       30.000       28.000       23.000
   64.6980       30.000       20.000       32.000       34.000       24.000
   64.8293       27.000       31.000       33.000       37.000       23.000
   64.9606       31.000       24.000       25.000       29.000       30.000
   65.0919       28.000       37.000       19.000       22.000       31.000
   65.2232       26.000       36.000       35.000       39.000       28.000
   65.3545       31.000       24.000       33.000       27.000       26.000
   65.4858       35.000       32.000       38.000       32.000       26.000
   65.6171       37.000       37.000       28.000       30.000       28.000
   65.7484       42.000       31.000       28.000       19.000       31.000
   65.8797       35.000       30.000       27.000       24.000       28.000
   66.0110       23.000       36.000       41.000       19.000       15.000
   66.1423       36.000       23.000       36.000       40.000       34.000
   66.2736       30.000       26.000       22.000       28.000       31.000
   66.4049       38.000       31.000       24.000       27.000       28.000
   66.5362       28.000       15.000       30.000       34.000       24.000
   66.6675       32.000       35.000       30.000       27.000       30.000
   66.7988       33.000       24.000       29.000       29.000       26.000
   66.9301       34.000       25.000       30.000       25.000       26.000
   67.0614       35.000       21.000       31.000       27.000       27.000
   67.1927       26.000       42.000       18.000       31.000       30.000
   67.3241       26.000       40.000       29.000       29.000       27.000
   67.4554       39.000       31.000       53.000       32.000       43.000
   67.5867       39.000       58.000       54.000       44.000       54.000
   67.7180       40.000       42.000       46.000       44.000       35.000
   67.8493       39.000       43.000       29.000       36.000       28.000
   67.9806       29.000       24.000       27.000       24.000       19.000
   68.1119       29.000       35.000       27.000       37.000       29.000
   68.2432       25.000       39.000       30.000       32.000       29.000
   68.3745       25.000       32.000       35.000       43.000       29.000
   68.5058       36.000       40.000       34.000       40.000       48.000
   68.6371       33.000       35.000       38.000       26.000       42.000
   68.7684       35.000       41.000       44.000       42.000       38.000
   68.8997       31.000       30.000       32.000       28.000       32.000
   69.0310       31.000       28.000       35.000       20.000       31.000
   69.1623       29.000       28.000       33.000       29.000       26.000
   69.2936       21.000       29.000       27.000       35.000       29.000
   69.4249       19.000       26.000       34.000       31.000       34.000
   69.5562       18.000       25.000       18.000       25.000       37.000
   69.6875       31.000       31.000       26.000       32.000       27.000
   69.8188       37.000       30.000       24.000       29.000       20.000
   69.9501       41.000       39.000       38.000       26.000       24.000
   70.0814       31.000       22.000       21.000       35.000       31.000
   70.2127       19.000       29.000       20.000       28.000       30.000
   70.3440       26.000       26.000       18.000       27.000       34.000
   70.4753       31.000       31.000       24.000       20.000       26.000
   70.6066       30.000       28.000       31.000       16.000       29.000
   70.7379       32.000       31.000       31.000       27.000       26.000
   70.8692       23.000       28.000       38.000       28.000       29.000
   71.0005       29.000       24.000       32.000       18.000       25.000
   71.1318       28.000       41.000       35.000       20.000       37.000
   71.2631       34.000       28.000       23.000       40.000       40.000
   71.3944       36.000       38.000       24.000       28.000       22.000
   71.5257       24.000       34.000       35.000       33.000       25.000
   71.6570       34.000       36.000       22.000       34.000       32.000
   71.7883       22.000       25.000       36.000       35.000       25.000
   71.9196       27.000       25.000       35.000       34.000       23.000
   72.0510       22.000       26.000       22.000       21.000       23.000
   72.1823       25.000       22.000       18.000       29.000       27.000
   72.3136       24.000       23.000       31.000       24.000       17.000
   72.4449       19.000       23.000       25.000       31.000       26.000
   72.5762       22.000       31.000       30.000       29.000       35.000
   72.7075       38.000       32.000       31.000       31.000       29.000
   72.8388       32.000       29.000       34.000       19.000       30.000
   72.9701       26.000       25.000       20.000       20.000       15.000
   73.1014       20.000       25.000       29.000       28.000       25.000
   73.2327       23.000       21.000       22.000       32.000       16.000
   73.3640       16.000       26.000       18.000       25.000       21.000
   73.4953       32.000       23.000       21.000       40.000       39.000
   73.6266       28.000       27.000       24.000       19.000       28.000
   73.7579       21.000       17.000       28.000       26.000       29.000
   73.8892       23.000       17.000       26.000       25.000       20.000
   74.0205       16.000       23.000       18.000       22.000       19.000
   74.1518       25.000       16.000       23.000       28.000       20.000
   74.2831       31.000       17.000       26.000       12.000       18.000
   74.4144       27.000       27.000       27.000       20.000       22.000
   74.5457       22.000       24.000       23.000       25.000       24.000
   74.6770       20.000       21.000       22.000       22.000       29.000
   74.8083       26.000       39.000       33.000       32.000       17.000
   74.9396       22.000       30.000       35.000       22.000       25.000
   75.0709       31.000       26.000       29.000       27.000       30.000
   75.2022       18.000       20.000       27.000       25.000       36.000
   75.3335       28.000       23.000       37.000       19.000       28.000
   75.4648       21.000       26.000       27.000       28.000       19.000
   75.5961       20.000       27.000       21.000       26.000       27.000
   75.7274       23.000       22.000       28.000       23.000       29.000
   75.8587       28.000       22.000       20.000       24.000       24.000
   75.9900       17.000       27.000       25.000       23.000       15.000
   76.1213       18.000       20.000       21.000       28.000       22.000
   76.2526       20.000       19.000       16.000       23.000       25.000
   76.3839       25.000       18.000       30.000       21.000       20.000
   76.5152       25.000       20.000       25.000       23.000       22.000
   76.6466       24.000       23.000       24.000       26.000       26.000
   76.7779       33.000       24.000       16.000       32.000       23.000
   76.9092       32.000       16.000       29.000       24.000       35.000
   77.0405       22.000       21.000       17.000       25.000       29.000
   77.1718       23.000       28.000       28.000       28.000       25.000
   77.3031       18.000       29.000       16.000       19.000       28.000
   77.4344       17.000       15.000       19.000       25.000       22.000
   77.5657       19.000       20.000       29.000       24.000       20.000
   77.6970       27.000       15.000       25.000       21.000       24.000
   77.8283       19.000       26.000       22.000       31.000       24.000
   77.9596       21.000       27.000       24.000       19.000       22.000
   78.0909       30.000       23.000       19.000       25.000       27.000
   78.2222       17.000       29.000       21.000       26.000       23.000
   78.3535       22.000       24.000       24.000       26.000       25.000
   78.4848       26.000       25.000       31.000       34.000       17.000
   78.6161       29.000       24.000       23.000       46.000       38.000
   78.7474       40.000       35.000       29.000       25.000       34.000
   78.8787       29.000       33.000       28.000       30.000       22.000
   79.0100       34.000       25.000       30.000       35.000       30.000
   79.1413       33.000       17.000       42.000       29.000       31.000
   79.2726       19.000       26.000       31.000       29.000       32.000
   79.4039       32.000       34.000       31.000       33.000       32.000
   79.5352       42.000       33.000       23.000       30.000       37.000
   79.6665       25.000       33.000       37.000       41.000       31.000
   79.7978       25.000       29.000       35.000       32.000       26.000
   79.9291       24.000       35.000       26.000       26.000       30.000
   80.0604       32.000       25.000       30.000       26.000       31.000
   80.1917       29.000       37.000       30.000       33.000       43.000
   80.3230       41.000       38.000       37.000       46.000       42.000
   80.4543       38.000       36.000       31.000       34.000       28.000
   80.5856       32.000       33.000       39.000       48.000       21.000
   80.7169       38.000       40.000       21.000       18.000       24.000
   80.8482       28.000       21.000       19.000       19.000       27.000
   80.9795       28.000       17.000       20.000       18.000       25.000
   81.1108       20.000       22.000       15.000       22.000       20.000
   81.2422       36.000       25.000       32.000       28.000       32.000
   81.3735       21.000       19.000       28.000       19.000       24.000
   81.5048       27.000       26.000       28.000       20.000       28.000
   81.6361       34.000       25.000       29.000       20.000       25.000
   81.7674       28.000       23.000       21.000       27.000       23.000
   81.8987       23.000       37.000       28.000       26.000       30.000
   82.0300       27.000       28.000       31.000       22.000       30.000
   82.1613       30.000       34.000       28.000       36.000       29.000
   82.2926       27.000       31.000       24.000       26.000       21.000
   82.4239       29.000       37.000       29.000       19.000       31.000
   82.5552       29.000       34.000       28.000       30.000       20.000
   82.6865       25.000       29.000       41.000       25.000       23.000
   82.8178       27.000       36.000       28.000       25.000       35.000
   82.9491       26.000       34.000       34.000       32.000       28.000
   83.0804       25.000       32.000       31.000       29.000       45.000
   83.2117       41.000       34.000       27.000       36.000       36.000
   83.3430       31.000       29.000       38.000       45.000       45.000
   83.4743       49.000       53.000       44.000       43.000       48.000
   83.6056       45.000       43.000       38.000       33.000       38.000
   83.7369       32.000       43.000       29.000       44.000       36.000
   83.8682       29.000       40.000       35.000       35.000       35.000
   83.9995       37.000       30.000       27.000       38.000       33.000
   84.1308       30.000       25.000       29.000       29.000       38.000
   84.2621       29.000       35.000       30.000       33.000       40.000
   84.3934       37.000       30.000       35.000       34.000       31.000
   84.5247       30.000       28.000       34.000       26.000       35.000
   84.6560       24.000       21.000       24.000       31.000       26.000
   84.7873       35.000       35.000       29.000       31.000       34.000
   84.9186       27.000       36.000       36.000       45.000       19.000
   85.0499       37.000       37.000       24.000       35.000       35.000
   85.1812       30.000       24.000       26.000       33.000       30.000
   85.3125       41.000       25.000       32.000       22.000       44.000
   85.4438       38.000       37.000       39.000       36.000       41.000
   85.5751       47.000       37.000       47.000       47.000       38.000
   85.7064       41.000       41.000       36.000       30.000       46.000
   85.8377       38.000       37.000       40.000       50.000       53.000
   85.9691       25.000       46.000       34.000       22.000       38.000
   86.1004       34.000       27.000       27.000       32.000       40.000
   86.2317       30.000       33.000       39.000       22.000       39.000
   86.3630       28.000       42.000       33.000       44.000       39.000
   86.4943       45.000       30.000       40.000       44.000       44.000
   86.6256       40.000       34.000       40.000       40.000       39.000
   86.7569       37.000       40.000       41.000       42.000       38.000
   86.8882       32.000       39.000       35.000       37.000       32.000
   87.0195       26.000       34.000       31.000       21.000       28.000
   87.1508       22.000       36.000       29.000       36.000       23.000
   87.2821       29.000       31.000       34.000       33.000       29.000
   87.4134       31.000       28.000       23.000       37.000       21.000
   87.5447       22.000       23.000       27.000       29.000       26.000
   87.6760       25.000       37.000       24.000       23.000       20.000
   87.8073       23.000       22.000       22.000       27.000       33.000
   87.9386       22.000       28.000       23.000       24.000       35.000
   88.0699       32.000       19.000       28.000       19.000       18.000
   88.2012       22.000       28.000       27.000       25.000       28.000
   88.3325       29.000       20.000       25.000       25.000       32.000
   88.4638       33.000       25.000       23.000       27.000       20.000
   88.5951       23.000       34.000       13.000       25.000       23.000
   88.7264       28.000       25.000       33.000       33.000       35.000
   88.8577       27.000       32.000       28.000       28.000       27.000
   88.9890       28.000       41.000       24.000       34.000       28.000
   89.1203       33.000       39.000       27.000       32.000       21.000
   89.2516       27.000       38.000       30.000       31.000       25.000
   89.3829       32.000       27.000       32.000       35.000       33.000
   89.5142       25.000       29.000       32.000       28.000       34.000
   89.6455       25.000       24.000       25.000       36.000       32.000
   89.7768       25.000       22.000       30.000       30.000       47.000
   89.9081       38.000       45.000       30.000       46.000
## END= 
