6.005630280 343.0
6.031890845 282.0
6.058151411 310.0
6.084411976 299.0
6.110672541 331.0
6.136933107 344.0
6.163193672 301.0
6.189454237 321.0
6.215714803 288.0
6.241975368 318.0
6.268235934 287.0
6.294496499 278.0
6.320757064 312.0
6.347017630 301.0
6.373278195 310.0
6.399538760 303.0
6.425799326 297.0
6.452059891 302.0
6.478320456 285.0
6.504581022 282.0
6.530841587 251.0
6.557102152 254.0
6.583362718 285.0
6.609623283 324.0
6.635883848 286.0
6.662144414 274.0
6.688404979 268.0
6.714665545 243.0
6.740926110 286.0
6.767186675 310.0
6.793447241 268.0
6.819707806 298.0
6.845968371 274.0
6.872228937 284.0
6.898489502 275.0
6.924750067 288.0
6.951010633 255.0
6.977271198 286.0
7.003531763 284.0
7.029792329 276.0
7.056052894 255.0
7.082313459 269.0
7.108574025 272.0
7.134834590 257.0
7.161095156 261.0
7.187355721 287.0
7.213616286 268.0
7.239876852 247.0
7.266137417 312.0
7.292397982 280.0
7.318658548 252.0
7.344919113 262.0
7.371179678 255.0
7.397440244 248.0
7.423700809 248.0
7.449961374 262.0
7.476221940 262.0
7.502482505 264.0
7.528743070 265.0
7.555003636 266.0
7.581264201 247.0
7.607524767 251.0
7.633785332 257.0
7.660045897 258.0
7.686306463 243.0
7.712567028 247.0
7.738827593 243.0
7.765088159 250.0
7.791348724 253.0
7.817609289 242.0
7.843869855 246.0
7.870130420 223.0
7.896390985 223.0
7.922651551 260.0
7.948912116 253.0
7.975172682 247.0
8.001433247 260.0
8.027693812 232.0
8.053954378 235.0
8.080214943 246.0
8.106475508 249.0
8.132736074 247.0
8.158996639 238.0
8.185257204 244.0
8.211517770 250.0
8.237778335 275.0
8.264038900 225.0
8.290299466 227.0
8.316560031 265.0
8.342820596 225.0
8.369081162 240.0
8.395341727 228.0
8.421602293 238.0
8.447862858 205.0
8.474123423 257.0
8.500383989 238.0
8.526644554 203.0
8.552905119 233.0
8.579165685 218.0
8.605426250 238.0
8.631686815 224.0
8.657947381 209.0
8.684207946 222.0
8.710468511 235.0
8.736729077 228.0
8.762989642 223.0
8.789250207 241.0
8.815510773 223.0
8.841771338 234.0
8.868031904 206.0
8.894292469 207.0
8.920553034 225.0
8.946813600 237.0
8.973074165 224.0
8.999334730 219.0
9.025595296 210.0
9.051855861 208.0
9.078116426 227.0
9.104376992 223.0
9.130637557 226.0
9.156898122 226.0
9.183158688 209.0
9.209419253 191.0
9.235679818 182.0
9.261940384 204.0
9.288200949 201.0
9.314461515 215.0
9.340722080 220.0
9.366982645 229.0
9.393243211 217.0
9.419503776 217.0
9.445764341 236.0
9.472024907 207.0
9.498285472 210.0
9.524546037 204.0
9.550806603 192.0
9.577067168 191.0
9.603327733 208.0
9.629588299 215.0
9.655848864 191.0
9.682109429 192.0
9.708369995 237.0
9.734630560 202.0
9.760891126 210.0
9.787151691 208.0
9.813412256 204.0
9.839672822 205.0
9.865933387 214.0
9.892193952 190.0
9.918454518 221.0
9.944715083 201.0
9.970975648 210.0
9.997236214 223.0
10.023496779 190.0
10.049757344 194.0
10.076017910 211.0
10.102278475 174.0
10.128539040 164.0
10.154799606 178.0
10.181060171 209.0
10.207320737 196.0
10.233581302 188.0
10.259841867 196.0
10.286102433 188.0
10.312362998 199.0
10.338623563 193.0
10.364884129 190.0
10.391144694 188.0
10.417405259 209.0
10.443665825 182.0
10.469926390 214.0
10.496186955 192.0
10.522447521 189.0
10.548708086 189.0
10.574968651 207.0
10.601229217 183.0
10.627489782 186.0
10.653750348 202.0
10.680010913 174.0
10.706271478 195.0
10.732532044 173.0
10.758792609 174.0
10.785053174 171.0
10.811313740 194.0
10.837574305 182.0
10.863834870 186.0
10.890095436 174.0
10.916356001 174.0
10.942616566 194.0
10.968877132 164.0
10.995137697 186.0
11.021398262 192.0
11.047658828 187.0
11.073919393 194.0
11.100179959 184.0
11.126440524 180.0
11.152701089 153.0
11.178961655 165.0
11.205222220 191.0
11.231482785 197.0
11.257743351 173.0
11.284003916 166.0
11.310264481 168.0
11.336525047 170.0
11.362785612 193.0
11.389046177 151.0
11.415306743 167.0
11.441567308 135.0
11.467827873 178.0
11.494088439 176.0
11.520349004 157.0
11.546609570 172.0
11.572870135 165.0
11.599130700 167.0
11.625391266 185.0
11.651651831 163.0
11.677912396 166.0
11.704172962 165.0
11.730433527 183.0
11.756694092 192.0
11.782954658 234.0
11.809215223 233.0
11.835475788 225.0
11.861736354 247.0
11.887996919 225.0
11.914257485 189.0
11.940518050 154.0
11.966778615 186.0
11.993039181 176.0
12.019299746 162.0
12.045560311 153.0
12.071820877 165.0
12.098081442 139.0
12.124342007 165.0
12.150602573 168.0
12.176863138 157.0
12.203123703 154.0
12.229384269 170.0
12.255644834 199.0
12.281905399 171.0
12.308165965 177.0
12.334426530 177.0
12.360687096 191.0
12.386947661 161.0
12.413208226 178.0
12.439468792 158.0
12.465729357 140.0
12.491989922 137.0
12.518250488 134.0
12.544511053 163.0
12.570771618 153.0
12.597032184 147.0
12.623292749 143.0
12.649553314 169.0
12.675813880 146.0
12.702074445 142.0
12.728335010 149.0
12.754595576 149.0
12.780856141 153.0
12.807116707 143.0
12.833377272 155.0
12.859637837 155.0
12.885898403 158.0
12.912158968 138.0
12.938419533 165.0
12.964680099 134.0
12.990940664 151.0
13.017201229 133.0
13.043461795 159.0
13.069722360 157.0
13.095982925 138.0
13.122243491 147.0
13.148504056 142.0
13.174764621 158.0
13.201025187 147.0
13.227285752 144.0
13.253546318 152.0
13.279806883 117.0
13.306067448 125.0
13.332328014 156.0
13.358588579 133.0
13.384849144 150.0
13.411109710 144.0
13.437370275 151.0
13.463630840 147.0
13.489891406 172.0
13.516151971 137.0
13.542412536 137.0
13.568673102 155.0
13.594933667 125.0
13.621194232 133.0
13.647454798 155.0
13.673715363 139.0
13.699975929 136.0
13.726236494 116.0
13.752497059 119.0
13.778757625 138.0
13.805018190 122.0
13.831278755 134.0
13.857539321 144.0
13.883799886 128.0
13.910060451 124.0
13.936321017 114.0
13.962581582 139.0
13.988842147 147.0
14.015102713 131.0
14.041363278 137.0
14.067623843 137.0
14.093884409 126.0
14.120144974 131.0
14.146405540 131.0
14.172666105 118.0
14.198926670 132.0
14.225187236 143.0
14.251447801 146.0
14.277708366 153.0
14.303968932 142.0
14.330229497 125.0
14.356490062 104.0
14.382750628 124.0
14.409011193 118.0
14.435271758 111.0
14.461532324 116.0
14.487792889 116.0
14.514053454 132.0
14.540314020 131.0
14.566574585 107.0
14.592835151 123.0
14.619095716 107.0
14.645356281 120.0
14.671616847 123.0
14.697877412 138.0
14.724137977 128.0
14.750398543 121.0
14.776659108 118.0
14.802919673 139.0
14.829180239 118.0
14.855440804 130.0
14.881701369 126.0
14.907961935 132.0
14.934222500 117.0
14.960483065 147.0
14.986743631 130.0
15.013004196 131.0
15.039264762 141.0
15.065525327 158.0
15.091785892 154.0
15.118046458 148.0
15.144307023 136.0
15.170567588 127.0
15.196828154 129.0
15.223088719 116.0
15.249349284 101.0
15.275609850 129.0
15.301870415 131.0
15.328130980 151.0
15.354391546 122.0
15.380652111 120.0
15.406912676 120.0
15.433173242 132.0
15.459433807 121.0
15.485694373 117.0
15.511954938 111.0
15.538215503 106.0
15.564476069 110.0
15.590736634 108.0
15.616997199 132.0
15.643257765 117.0
15.669518330 129.0
15.695778895 103.0
15.722039461 113.0
15.748300026 146.0
15.774560591 133.0
15.800821157 107.0
15.827081722 114.0
15.853342288 129.0
15.879602853 104.0
15.905863418 113.0
15.932123984 118.0
15.958384549 117.0
15.984645114 124.0
16.010905680 115.0
16.037166245 116.0
16.063426810 107.0
16.089687376 107.0
16.115947941 107.0
16.142208506 88.0
16.168469072 116.0
16.194729637 119.0
16.220990202 112.0
16.247250768 97.0
16.273511333 110.0
16.299771899 110.0
16.326032464 119.0
16.352293029 96.0
16.378553595 125.0
16.404814160 114.0
16.431074725 108.0
16.457335291 114.0
16.483595856 94.0
16.509856421 127.0
16.536116987 106.0
16.562377552 110.0
16.588638117 103.0
16.614898683 108.0
16.641159248 104.0
16.667419813 94.0
16.693680379 105.0
16.719940944 106.0
16.746201510 83.0
16.772462075 94.0
16.798722640 88.0
16.824983206 96.0
16.851243771 113.0
16.877504336 84.0
16.903764902 91.0
16.930025467 105.0
16.956286032 94.0
16.982546598 94.0
17.008807163 98.0
17.035067728 110.0
17.061328294 108.0
17.087588859 105.0
17.113849424 97.0
17.140109990 100.0
17.166370555 97.0
17.192631121 109.0
17.218891686 93.0
17.245152251 104.0
17.271412817 95.0
17.297673382 89.0
17.323933947 103.0
17.350194513 111.0
17.376455078 117.0
17.402715643 120.0
17.428976209 98.0
17.455236774 104.0
17.481497339 93.0
17.507757905 91.0
17.534018470 117.0
17.560279035 106.0
17.586539601 110.0
17.612800166 108.0
17.639060732 108.0
17.665321297 100.0
17.691581862 108.0
17.717842428 91.0
17.744102993 107.0
17.770363558 107.0
17.796624124 95.0
17.822884689 97.0
17.849145254 76.0
17.875405820 103.0
17.901666385 97.0
17.927926950 103.0
17.954187516 91.0
17.980448081 94.0
18.006708646 92.0
18.032969212 84.0
18.059229777 105.0
18.085490343 101.0
18.111750908 105.0
18.138011473 91.0
18.164272039 103.0
18.190532604 93.0
18.216793169 92.0
18.243053735 120.0
18.269314300 97.0
18.295574865 83.0
18.321835431 103.0
18.348095996 100.0
18.374356561 83.0
18.400617127 58.0
18.426877692 98.0
18.453138257 91.0
18.479398823 87.0
18.505659388 101.0
18.531919954 98.0
18.558180519 79.0
18.584441084 97.0
18.610701650 73.0
18.636962215 75.0
18.663222780 82.0
18.689483346 90.0
18.715743911 98.0
18.742004476 92.0
18.768265042 73.0
18.794525607 98.0
18.820786172 89.0
18.847046738 77.0
18.873307303 80.0
18.899567868 101.0
18.925828434 81.0
18.952088999 85.0
18.978349565 105.0
19.004610130 77.0
19.030870695 101.0
19.057131261 94.0
19.083391826 96.0
19.109652391 101.0
19.135912957 91.0
19.162173522 90.0
19.188434087 74.0
19.214694653 87.0
19.240955218 98.0
19.267215783 70.0
19.293476349 69.0
19.319736914 82.0
19.345997479 82.0
19.372258045 98.0
19.398518610 99.0
19.424779176 82.0
19.451039741 83.0
19.477300306 75.0
19.503560872 87.0
19.529821437 64.0
19.556082002 90.0
19.582342568 91.0
19.608603133 78.0
19.634863698 95.0
19.661124264 83.0
19.687384829 106.0
19.713645394 86.0
19.739905960 73.0
19.766166525 79.0
19.792427091 85.0
19.818687656 81.0
19.844948221 77.0
19.871208787 91.0
19.897469352 85.0
19.923729917 80.0
19.949990483 97.0
19.976251048 72.0
20.002511613 75.0
20.028772179 73.0
20.055032744 80.0
20.081293309 75.0
20.107553875 72.0
20.133814440 81.0
20.160075005 85.0
20.186335571 71.0
20.212596136 84.0
20.238856702 79.0
20.265117267 83.0
20.291377832 71.0
20.317638398 87.0
20.343898963 78.0
20.370159528 90.0
20.396420094 76.0
20.422680659 75.0
20.448941224 81.0
20.475201790 77.0
20.501462355 70.0
20.527722920 58.0
20.553983486 68.0
20.580244051 78.0
20.606504616 84.0
20.632765182 85.0
20.659025747 77.0
20.685286313 84.0
20.711546878 61.0
20.737807443 80.0
20.764068009 89.0
20.790328574 86.0
20.816589139 84.0
20.842849705 104.0
20.869110270 89.0
20.895370835 127.0
20.921631401 107.0
20.947891966 118.0
20.974152531 128.0
21.000413097 99.0
21.026673662 91.0
21.052934227 91.0
21.079194793 81.0
21.105455358 96.0
21.131715924 83.0
21.157976489 59.0
21.184237054 79.0
21.210497620 74.0
21.236758185 75.0
21.263018750 73.0
21.289279316 75.0
21.315539881 68.0
21.341800446 65.0
21.368061012 71.0
21.394321577 89.0
21.420582142 77.0
21.446842708 81.0
21.473103273 74.0
21.499363838 70.0
21.525624404 67.0
21.551884969 77.0
21.578145535 77.0
21.604406100 74.0
21.630666665 76.0
21.656927231 68.0
21.683187796 64.0
21.709448361 81.0
21.735708927 67.0
21.761969492 69.0
21.788230057 67.0
21.814490623 74.0
21.840751188 67.0
21.867011753 94.0
21.893272319 68.0
21.919532884 72.0
21.945793449 74.0
21.972054015 68.0
21.998314580 64.0
22.024575146 76.0
22.050835711 77.0
22.077096276 64.0
22.103356842 80.0
22.129617407 73.0
22.155877972 78.0
22.182138538 82.0
22.208399103 44.0
22.234659668 81.0
22.260920234 65.0
22.287180799 62.0
22.313441364 72.0
22.339701930 59.0
22.365962495 59.0
22.392223060 78.0
22.418483626 74.0
22.444744191 62.0
22.471004757 80.0
22.497265322 65.0
22.523525887 67.0
22.549786453 48.0
22.576047018 70.0
22.602307583 67.0
22.628568149 69.0
22.654828714 71.0
22.681089279 65.0
22.707349845 78.0
22.733610410 60.0
22.759870975 70.0
22.786131541 65.0
22.812392106 61.0
22.838652671 64.0
22.864913237 63.0
22.891173802 76.0
22.917434368 66.0
22.943694933 90.0
22.969955498 74.0
22.996216064 82.0
23.022476629 76.0
23.048737194 81.0
23.074997760 83.0
23.101258325 100.0
23.127518890 110.0
23.153779456 101.0
23.180040021 93.0
23.206300586 118.0
23.232561152 100.0
23.258821717 85.0
23.285082283 84.0
23.311342848 92.0
23.337603413 83.0
23.363863979 69.0
23.390124544 74.0
23.416385109 71.0
23.442645675 78.0
23.468906240 64.0
23.495166805 62.0
23.521427371 87.0
23.547687936 75.0
23.573948501 83.0
23.600209067 97.0
23.626469632 80.0
23.652730197 77.0
23.678990763 94.0
23.705251328 61.0
23.731511894 54.0
23.757772459 40.0
23.784033024 61.0
23.810293590 65.0
23.836554155 55.0
23.862814720 64.0
23.889075286 61.0
23.915335851 59.0
23.941596416 60.0
23.967856982 69.0
23.994117547 57.0
24.020378112 60.0
24.046638678 61.0
24.072899243 60.0
24.099159808 62.0
24.125420374 61.0
24.151680939 62.0
24.177941505 60.0
24.204202070 75.0
24.230462635 55.0
24.256723201 62.0
24.282983766 44.0
24.309244331 65.0
24.335504897 57.0
24.361765462 65.0
24.388026027 62.0
24.414286593 82.0
24.440547158 81.0
24.466807723 61.0
24.493068289 68.0
24.519328854 79.0
24.545589419 75.0
24.571849985 80.0
24.598110550 74.0
24.624371116 62.0
24.650631681 57.0
24.676892246 68.0
24.703152812 73.0
24.729413377 55.0
24.755673942 49.0
24.781934508 51.0
24.808195073 58.0
24.834455638 48.0
24.860716204 50.0
24.886976769 64.0
24.913237334 53.0
24.939497900 74.0
24.965758465 53.0
24.992019030 49.0
25.018279596 56.0
25.044540161 53.0
25.070800727 50.0
25.097061292 72.0
25.123321857 58.0
25.149582423 50.0
25.175842988 73.0
25.202103553 63.0
25.228364119 47.0
25.254624684 65.0
25.280885249 54.0
25.307145815 74.0
25.333406380 66.0
25.359666945 78.0
25.385927511 82.0
25.412188076 80.0
25.438448641 71.0
25.464709207 87.0
25.490969772 78.0
25.517230338 74.0
25.543490903 72.0
25.569751468 68.0
25.596012034 76.0
25.622272599 49.0
25.648533164 56.0
25.674793730 51.0
25.701054295 45.0
25.727314860 55.0
25.753575426 61.0
25.779835991 62.0
25.806096556 58.0
25.832357122 58.0
25.858617687 64.0
25.884878252 68.0
25.911138818 57.0
25.937399383 52.0
25.963659949 63.0
25.989920514 61.0
26.016181079 67.0
26.042441645 71.0
26.068702210 48.0
26.094962775 80.0
26.121223341 56.0
26.147483906 69.0
26.173744471 48.0
26.200005037 58.0
26.226265602 51.0
26.252526167 42.0
26.278786733 46.0
26.305047298 53.0
26.331307863 55.0
26.357568429 61.0
26.383828994 61.0
26.410089560 52.0
26.436350125 72.0
26.462610690 55.0
26.488871256 74.0
26.515131821 70.0
26.541392386 66.0
26.567652952 58.0
26.593913517 62.0
26.620174082 47.0
26.646434648 70.0
26.672695213 61.0
26.698955778 58.0
26.725216344 58.0
26.751476909 69.0
26.777737474 67.0
26.803998040 72.0
26.830258605 60.0
26.856519171 69.0
26.882779736 67.0
26.909040301 35.0
26.935300867 61.0
26.961561432 54.0
26.987821997 40.0
27.014082563 69.0
27.040343128 54.0
27.066603693 47.0
27.092864259 49.0
27.119124824 46.0
27.145385389 50.0
27.171645955 53.0
27.197906520 57.0
27.224167086 38.0
27.250427651 56.0
27.276688216 48.0
27.302948782 56.0
27.329209347 46.0
27.355469912 65.0
27.381730478 51.0
27.407991043 72.0
27.434251608 62.0
27.460512174 52.0
27.486772739 60.0
27.513033304 55.0
27.539293870 54.0
27.565554435 56.0
27.591815000 55.0
27.618075566 65.0
27.644336131 65.0
27.670596697 56.0
27.696857262 60.0
27.723117827 68.0
27.749378393 51.0
27.775638958 59.0
27.801899523 61.0
27.828160089 57.0
27.854420654 62.0
27.880681219 56.0
27.906941785 55.0
27.933202350 62.0
27.959462915 52.0
27.985723481 75.0
28.011984046 66.0
28.038244611 63.0
28.064505177 51.0
28.090765742 75.0
28.117026308 71.0
28.143286873 72.0
28.169547438 75.0
28.195808004 67.0
28.222068569 77.0
28.248329134 70.0
28.274589700 79.0
28.300850265 78.0
28.327110830 58.0
28.353371396 77.0
28.379631961 68.0
28.405892526 57.0
28.432153092 60.0
28.458413657 71.0
28.484674222 52.0
28.510934788 69.0
28.537195353 55.0
28.563455919 52.0
28.589716484 67.0
28.615977049 56.0
28.642237615 55.0
28.668498180 40.0
28.694758745 64.0
28.721019311 58.0
28.747279876 48.0
28.773540441 63.0
28.799801007 55.0
28.826061572 55.0
28.852322137 65.0
28.878582703 51.0
28.904843268 50.0
28.931103833 76.0
28.957364399 60.0
28.983624964 55.0
29.009885530 47.0
29.036146095 57.0
29.062406660 52.0
29.088667226 56.0
29.114927791 70.0
29.141188356 72.0
29.167448922 67.0
29.193709487 76.0
29.219970052 77.0
29.246230618 91.0
29.272491183 89.0
29.298751748 122.0
29.325012314 102.0
29.351272879 112.0
29.377533444 113.0
29.403794010 121.0
29.430054575 111.0
29.456315141 103.0
29.482575706 133.0
29.508836271 191.0
29.535096837 235.0
29.561357402 314.0
29.587617967 382.0
29.613878533 445.0
29.640139098 419.0
29.666399663 519.0
29.692660229 489.0
29.718920794 363.0
29.745181359 286.0
29.771441925 231.0
29.797702490 168.0
29.823963055 113.0
29.850223621 62.0
29.876484186 69.0
29.902744752 71.0
29.929005317 79.0
29.955265882 60.0
29.981526448 70.0
30.007787013 59.0
30.034047578 70.0
30.060308144 68.0
30.086568709 52.0
30.112829274 60.0
30.139089840 74.0
30.165350405 68.0
30.191610970 91.0
30.217871536 114.0
30.244132101 126.0
30.270392666 162.0
30.296653232 176.0
30.322913797 185.0
30.349174363 189.0
30.375434928 122.0
30.401695493 107.0
30.427956059 87.0
30.454216624 67.0
30.480477189 61.0
30.506737755 50.0
30.532998320 54.0
30.559258885 46.0
30.585519451 55.0
30.611780016 44.0
30.638040581 47.0
30.664301147 54.0
30.690561712 51.0
30.716822277 50.0
30.743082843 49.0
30.769343408 47.0
30.795603974 46.0
30.821864539 66.0
30.848125104 41.0
30.874385670 47.0
30.900646235 48.0
30.926906800 61.0
30.953167366 64.0
30.979427931 52.0
31.005688496 58.0
31.031949062 57.0
31.058209627 67.0
31.084470192 62.0
31.110730758 71.0
31.136991323 79.0
31.163251889 68.0
31.189512454 77.0
31.215773019 79.0
31.242033585 81.0
31.268294150 77.0
31.294554715 88.0
31.320815281 71.0
31.347075846 75.0
31.373336411 69.0
31.399596977 55.0
31.425857542 66.0
31.452118107 57.0
31.478378673 56.0
31.504639238 60.0
31.530899803 46.0
31.557160369 53.0
31.583420934 65.0
31.609681500 69.0
31.635942065 56.0
31.662202630 59.0
31.688463196 58.0
31.714723761 76.0
31.740984326 69.0
31.767244892 66.0
31.793505457 76.0
31.819766022 61.0
31.846026588 72.0
31.872287153 71.0
31.898547718 75.0
31.924808284 73.0
31.951068849 69.0
31.977329414 88.0
32.003589980 79.0
32.029850545 75.0
32.056111111 96.0
32.082371676 87.0
32.108632241 102.0
32.134892807 92.0
32.161153372 108.0
32.187413937 118.0
32.213674503 115.0
32.239935068 170.0
32.266195633 176.0
32.292456199 229.0
32.318716764 271.0
32.344977329 322.0
32.371237895 413.0
32.397498460 536.0
32.423759025 714.0
32.450019591 749.0
32.476280156 623.0
32.502540722 501.0
32.528801287 425.0
32.555061852 335.0
32.581322418 254.0
32.607582983 222.0
32.633843548 263.0
32.660104114 238.0
32.686364679 302.0
32.712625244 397.0
32.738885810 483.0
32.765146375 519.0
32.791406940 552.0
32.817667506 594.0
32.843928071 658.0
32.870188636 600.0
32.896449202 474.0
32.922709767 359.0
32.948970333 296.0
32.975230898 216.0
33.001491463 135.0
33.027752029 125.0
33.054012594 105.0
33.080273159 101.0
33.106533725 116.0
33.132794290 113.0
33.159054855 113.0
33.185315421 124.0
33.211575986 117.0
33.237836551 116.0
33.264097117 142.0
33.290357682 116.0
33.316618247 123.0
33.342878813 114.0
33.369139378 128.0
33.395399944 155.0
33.421660509 167.0
33.447921074 157.0
33.474181640 158.0
33.500442205 156.0
33.526702770 166.0
33.552963336 140.0
33.579223901 123.0
33.605484466 128.0
33.631745032 107.0
33.658005597 112.0
33.684266162 115.0
33.710526728 110.0
33.736787293 113.0
33.763047858 132.0
33.789308424 133.0
33.815568989 106.0
33.841829555 111.0
33.868090120 114.0
33.894350685 141.0
33.920611251 132.0
33.946871816 133.0
33.973132381 163.0
33.999392947 162.0
34.025653512 188.0
34.051914077 169.0
34.078174643 153.0
34.104435208 163.0
34.130695773 193.0
34.156956339 150.0
34.183216904 155.0
34.209477469 112.0
34.235738035 112.0
34.261998600 109.0
34.288259166 115.0
34.314519731 102.0
34.340780296 118.0
34.367040862 102.0
34.393301427 119.0
34.419561992 114.0
34.445822558 141.0
34.472083123 194.0
34.498343688 280.0
34.524604254 393.0
34.550864819 561.0
34.577125384 602.0
34.603385950 716.0
34.629646515 632.0
34.655907081 431.0
34.682167646 406.0
34.708428211 293.0
34.734688777 227.0
34.760949342 108.0
34.787209907 98.0
34.813470473 66.0
34.839731038 62.0
34.865991603 77.0
34.892252169 71.0
34.918512734 56.0
34.944773299 67.0
34.971033865 72.0
34.997294430 52.0
35.023554995 52.0
35.049815561 68.0
35.076076126 61.0
35.102336692 51.0
35.128597257 57.0
35.154857822 38.0
35.181118388 47.0
35.207378953 64.0
35.233639518 53.0
35.259900084 49.0
35.286160649 45.0
35.312421214 46.0
35.338681780 48.0
35.364942345 48.0
35.391202910 55.0
35.417463476 52.0
35.443724041 52.0
35.469984606 35.0
35.496245172 53.0
35.522505737 56.0
35.548766303 50.0
35.575026868 56.0
35.601287433 44.0
35.627547999 50.0
35.653808564 39.0
35.680069129 43.0
35.706329695 47.0
35.732590260 45.0
35.758850825 37.0
35.785111391 50.0
35.811371956 42.0
35.837632521 54.0
35.863893087 40.0
35.890153652 60.0
35.916414217 32.0
35.942674783 53.0
35.968935348 35.0
35.995195914 42.0
36.021456479 43.0
36.047717044 46.0
36.073977610 57.0
36.100238175 55.0
36.126498740 49.0
36.152759306 52.0
36.179019871 53.0
36.205280436 51.0
36.231541002 52.0
36.257801567 52.0
36.284062132 52.0
36.310322698 51.0
36.336583263 55.0
36.362843828 55.0
36.389104394 49.0
36.415364959 40.0
36.441625525 45.0
36.467886090 42.0
36.494146655 40.0
36.520407221 43.0
36.546667786 59.0
36.572928351 49.0
36.599188917 38.0
36.625449482 37.0
36.651710047 46.0
36.677970613 44.0
36.704231178 35.0
36.730491743 50.0
36.756752309 66.0
36.783012874 62.0
36.809273439 62.0
36.835534005 68.0
36.861794570 94.0
36.888055136 109.0
36.914315701 90.0
36.940576266 98.0
36.966836832 102.0
36.993097397 86.0
37.019357962 80.0
37.045618528 63.0
37.071879093 86.0
37.098139658 68.0
37.124400224 66.0
37.150660789 56.0
37.176921354 36.0
37.203181920 59.0
37.229442485 48.0
37.255703050 51.0
37.281963616 46.0
37.308224181 47.0
37.334484747 48.0
37.360745312 46.0
37.387005877 52.0
37.413266443 55.0
37.439527008 52.0
37.465787573 46.0
37.492048139 45.0
37.518308704 52.0
37.544569269 65.0
37.570829835 52.0
37.597090400 49.0
37.623350965 48.0
37.649611531 38.0
37.675872096 44.0
37.702132661 56.0
37.728393227 40.0
37.754653792 43.0
37.780914358 39.0
37.807174923 41.0
37.833435488 39.0
37.859696054 45.0
37.885956619 44.0
37.912217184 47.0
37.938477750 31.0
37.964738315 39.0
37.990998880 43.0
38.017259446 42.0
38.043520011 45.0
38.069780576 50.0
38.096041142 55.0
38.122301707 50.0
38.148562272 44.0
38.174822838 42.0
38.201083403 54.0
38.227343969 40.0
38.253604534 48.0
38.279865099 48.0
38.306125665 51.0
38.332386230 45.0
38.358646795 44.0
38.384907361 36.0
38.411167926 41.0
38.437428491 42.0
38.463689057 39.0
38.489949622 51.0
38.516210187 43.0
38.542470753 35.0
38.568731318 39.0
38.594991884 34.0
38.621252449 42.0
38.647513014 38.0
38.673773580 47.0
38.700034145 50.0
38.726294710 35.0
38.752555276 35.0
38.778815841 49.0
38.805076406 64.0
38.831336972 66.0
38.857597537 66.0
38.883858102 74.0
38.910118668 88.0
38.936379233 113.0
38.962639798 106.0
38.988900364 133.0
39.015160929 162.0
39.041421495 153.0
39.067682060 127.0
39.093942625 112.0
39.120203191 121.0
39.146463756 98.0
39.172724321 85.0
39.198984887 82.0
39.225245452 70.0
39.251506017 47.0
39.277766583 51.0
39.304027148 65.0
39.330287713 57.0
39.356548279 49.0
39.382808844 68.0
39.409069409 60.0
39.435329975 59.0
39.461590540 70.0
39.487851106 56.0
39.514111671 72.0
39.540372236 64.0
39.566632802 76.0
39.592893367 83.0
39.619153932 67.0
39.645414498 65.0
39.671675063 64.0
39.697935628 54.0
39.724196194 67.0
39.750456759 48.0
39.776717324 56.0
39.802977890 53.0
39.829238455 51.0
39.855499020 51.0
39.881759586 54.0
39.908020151 52.0
39.934280717 60.0
39.960541282 47.0
39.986801847 54.0
40.013062413 50.0
40.039322978 46.0
40.065583543 34.0
40.091844109 43.0
40.118104674 38.0
40.144365239 50.0
40.170625805 50.0
40.196886370 40.0
40.223146935 35.0
40.249407501 45.0
40.275668066 38.0
40.301928631 39.0
40.328189197 35.0
40.354449762 55.0
40.380710328 36.0
40.406970893 35.0
40.433231458 46.0
40.459492024 36.0
40.485752589 30.0
40.512013154 33.0
40.538273720 37.0
40.564534285 44.0
40.590794850 51.0
40.617055416 40.0
40.643315981 47.0
40.669576546 40.0
40.695837112 36.0
40.722097677 32.0
40.748358242 36.0
40.774618808 48.0
40.800879373 45.0
40.827139939 63.0
40.853400504 40.0
40.879661069 42.0
40.905921635 49.0
40.932182200 43.0
40.958442765 59.0
40.984703331 62.0
41.010963896 54.0
41.037224461 56.0
41.063485027 58.0
41.089745592 52.0
41.116006157 75.0
41.142266723 81.0
41.168527288 73.0
41.194787853 81.0
41.221048419 69.0
41.247308984 75.0
41.273569550 85.0
41.299830115 88.0
41.326090680 87.0
41.352351246 124.0
41.378611811 129.0
41.404872376 138.0
41.431132942 152.0
41.457393507 212.0
41.483654072 270.0
41.509914638 355.0
41.536175203 388.0
41.562435768 333.0
41.588696334 294.0
41.614956899 249.0
41.641217464 246.0
41.667478030 197.0
41.693738595 138.0
41.719999161 104.0
41.746259726 93.0
41.772520291 105.0
41.798780857 85.0
41.825041422 104.0
41.851301987 120.0
41.877562553 113.0
41.903823118 107.0
41.930083683 97.0
41.956344249 104.0
41.982604814 91.0
42.008865379 91.0
42.035125945 88.0
42.061386510 64.0
42.087647075 60.0
42.113907641 57.0
42.140168206 73.0
42.166428772 60.0
42.192689337 57.0
42.218949902 63.0
42.245210468 37.0
42.271471033 51.0
42.297731598 46.0
42.323992164 47.0
42.350252729 47.0
42.376513294 38.0
42.402773860 44.0
42.429034425 50.0
42.455294990 41.0
42.481555556 45.0
42.507816121 48.0
42.534076687 50.0
42.560337252 37.0
42.586597817 48.0
42.612858383 43.0
42.639118948 39.0
42.665379513 35.0
42.691640079 41.0
42.717900644 58.0
42.744161209 41.0
42.770421775 52.0
42.796682340 41.0
42.822942905 27.0
42.849203471 42.0
42.875464036 48.0
42.901724601 49.0
42.927985167 58.0
42.954245732 58.0
42.980506298 62.0
43.006766863 80.0
43.033027428 92.0
43.059287994 112.0
43.085548559 141.0
43.111809124 138.0
43.138069690 114.0
43.164330255 107.0
43.190590820 100.0
43.216851386 99.0
43.243111951 75.0
43.269372516 68.0
43.295633082 66.0
43.321893647 51.0
43.348154212 73.0
43.374414778 66.0
43.400675343 57.0
43.426935909 60.0
43.453196474 53.0
43.479457039 68.0
43.505717605 68.0
43.531978170 52.0
43.558238735 52.0
43.584499301 50.0
43.610759866 37.0
43.637020431 53.0
43.663280997 45.0
43.689541562 51.0
43.715802127 42.0
43.742062693 42.0
43.768323258 54.0
43.794583823 50.0
43.820844389 39.0
43.847104954 55.0
43.873365520 39.0
43.899626085 57.0
43.925886650 42.0
43.952147216 52.0
43.978407781 52.0
44.004668346 61.0
44.030928912 71.0
44.057189477 58.0
44.083450042 58.0
44.109710608 60.0
44.135971173 69.0
44.162231738 65.0
44.188492304 58.0
44.214752869 61.0
44.241013434 59.0
44.267274000 62.0
44.293534565 59.0
44.319795131 66.0
44.346055696 71.0
44.372316261 61.0
44.398576827 63.0
44.424837392 67.0
44.451097957 72.0
44.477358523 52.0
44.503619088 64.0
44.529879653 48.0
44.556140219 51.0
44.582400784 35.0
44.608661349 56.0
44.634921915 44.0
44.661182480 48.0
44.687443045 50.0
44.713703611 48.0
44.739964176 54.0
44.766224742 47.0
44.792485307 50.0
44.818745872 54.0
44.845006438 37.0
44.871267003 45.0
44.897527568 50.0
44.923788134 45.0
44.950048699 39.0
44.976309264 33.0
45.002569830 45.0
45.028830395 33.0
45.055090960 45.0
45.081351526 43.0
45.107612091 38.0
45.133872656 30.0
45.160133222 37.0
45.186393787 28.0
45.212654353 35.0
45.238914918 24.0
45.265175483 42.0
45.291436049 31.0
45.317696614 31.0
45.343957179 35.0
45.370217745 38.0
45.396478310 36.0
45.422738875 38.0
45.448999441 34.0
45.475260006 36.0
45.501520571 40.0
45.527781137 42.0
45.554041702 45.0
45.580302267 29.0
45.606562833 40.0
45.632823398 38.0
45.659083964 42.0
45.685344529 46.0
45.711605094 51.0
45.737865660 44.0
45.764126225 29.0
45.790386790 44.0
45.816647356 47.0
45.842907921 42.0
45.869168486 50.0
45.895429052 60.0
45.921689617 57.0
45.947950182 63.0
45.974210748 70.0
46.000471313 56.0
46.026731878 71.0
46.052992444 74.0
46.079253009 85.0
46.105513575 89.0
46.131774140 61.0
46.158034705 73.0
46.184295271 53.0
46.210555836 68.0
46.236816401 61.0
46.263076967 38.0
46.289337532 47.0
46.315598097 34.0
46.341858663 39.0
46.368119228 28.0
46.394379793 43.0
46.420640359 36.0
46.446900924 30.0
46.473161490 36.0
46.499422055 35.0
46.525682620 39.0
46.551943186 45.0
46.578203751 41.0
46.604464316 42.0
46.630724882 39.0
46.656985447 46.0
46.683246012 37.0
46.709506578 44.0
46.735767143 56.0
46.762027708 41.0
46.788288274 38.0
46.814548839 42.0
46.840809404 40.0
46.867069970 49.0
46.893330535 60.0
46.919591101 35.0
46.945851666 53.0
46.972112231 42.0
46.998372797 56.0
47.024633362 64.0
47.050893927 84.0
47.077154493 74.0
47.103415058 95.0
47.129675623 100.0
47.155936189 106.0
47.182196754 117.0
47.208457319 126.0
47.234717885 133.0
47.260978450 102.0
47.287239015 105.0
47.313499581 80.0
47.339760146 99.0
47.366020712 84.0
47.392281277 85.0
47.418541842 90.0
47.444802408 90.0
47.471062973 84.0
47.497323538 77.0
47.523584104 89.0
47.549844669 81.0
47.576105234 79.0
47.602365800 81.0
47.628626365 93.0
47.654886930 82.0
47.681147496 68.0
47.707408061 80.0
47.733668626 66.0
47.759929192 66.0
47.786189757 63.0
47.812450323 49.0
47.838710888 50.0
47.864971453 56.0
47.891232019 62.0
47.917492584 67.0
47.943753149 60.0
47.970013715 81.0
47.996274280 63.0
48.022534845 59.0
48.048795411 51.0
48.075055976 41.0
48.101316541 53.0
48.127577107 38.0
48.153837672 47.0
48.180098237 46.0
48.206358803 58.0
48.232619368 39.0
48.258879934 40.0
48.285140499 45.0
48.311401064 57.0
48.337661630 32.0
48.363922195 40.0
48.390182760 33.0
48.416443326 32.0
48.442703891 27.0
48.468964456 40.0
48.495225022 46.0
48.521485587 31.0
48.547746152 31.0
48.574006718 40.0
48.600267283 36.0
48.626527848 36.0
48.652788414 45.0
48.679048979 28.0
48.705309545 39.0
48.731570110 39.0
48.757830675 30.0
48.784091241 29.0
48.810351806 33.0
48.836612371 24.0
48.862872937 37.0
48.889133502 39.0
48.915394067 20.0
48.941654633 44.0
48.967915198 37.0
48.994175763 34.0
49.020436329 27.0
49.046696894 26.0
49.072957459 44.0
49.099218025 34.0
49.125478590 38.0
49.151739156 34.0
49.177999721 37.0
49.204260286 52.0
49.230520852 50.0
49.256781417 39.0
49.283041982 43.0
49.309302548 38.0
49.335563113 37.0
49.361823678 41.0
49.388084244 44.0
49.414344809 35.0
49.440605374 54.0
49.466865940 39.0
49.493126505 45.0
49.519387070 38.0
49.545647636 36.0
49.571908201 36.0
49.598168767 47.0
49.624429332 36.0
49.650689897 43.0
49.676950463 33.0
49.703211028 46.0
49.729471593 49.0
49.755732159 41.0
49.781992724 56.0
49.808253289 57.0
49.834513855 59.0
49.860774420 60.0
49.887034985 54.0
49.913295551 64.0
49.939556116 73.0
49.965816682 68.0
49.992077247 61.0
50.018337812 56.0
50.044598378 81.0
50.070858943 64.0
50.097119508 76.0
50.123380074 83.0
50.149640639 59.0
50.175901204 74.0
50.202161770 64.0
50.228422335 90.0
50.254682900 81.0
50.280943466 62.0
50.307204031 61.0
50.333464596 42.0
50.359725162 42.0
50.385985727 56.0
50.412246293 58.0
50.438506858 45.0
50.464767423 47.0
50.491027989 45.0
50.517288554 40.0
50.543549119 51.0
50.569809685 43.0
50.596070250 38.0
50.622330815 38.0
50.648591381 48.0
50.674851946 39.0
50.701112511 36.0
50.727373077 41.0
50.753633642 32.0
50.779894207 42.0
50.806154773 38.0
50.832415338 44.0
50.858675904 42.0
50.884936469 43.0
50.911197034 37.0
50.937457600 39.0
50.963718165 48.0
50.989978730 41.0
51.016239296 49.0
51.042499861 37.0
51.068760426 44.0
51.095020992 40.0
51.121281557 45.0
51.147542122 49.0
51.173802688 48.0
51.200063253 46.0
51.226323818 37.0
51.252584384 43.0
51.278844949 43.0
51.305105515 45.0
51.331366080 39.0
51.357626645 35.0
51.383887211 54.0
51.410147776 56.0
51.436408341 38.0
51.462668907 29.0
51.488929472 36.0
51.515190037 49.0
51.541450603 42.0
51.567711168 46.0
51.593971733 49.0
51.620232299 55.0
51.646492864 52.0
51.672753429 45.0
51.699013995 38.0
51.725274560 54.0
51.751535126 57.0
51.777795691 53.0
51.804056256 75.0
51.830316822 101.0
51.856577387 134.0
51.882837952 214.0
51.909098518 204.0
51.935359083 281.0
51.961619648 297.0
51.987880214 245.0
52.014140779 216.0
52.040401344 226.0
52.066661910 243.0
52.092922475 236.0
52.119183040 231.0
52.145443606 229.0
52.171704171 153.0
52.197964737 123.0
52.224225302 84.0
52.250485867 95.0
52.276746433 93.0
52.303006998 78.0
52.329267563 64.0
52.355528129 41.0
52.381788694 41.0
52.408049259 37.0
52.434309825 33.0
52.460570390 35.0
52.486830955 43.0
52.513091521 31.0
52.539352086 38.0
52.565612651 22.0
52.591873217 32.0
52.618133782 38.0
52.644394348 33.0
52.670654913 30.0
52.696915478 22.0
52.723176044 35.0
52.749436609 25.0
52.775697174 27.0
52.801957740 33.0
52.828218305 32.0
52.854478870 26.0
52.880739436 32.0
52.907000001 26.0
52.933260566 25.0
52.959521132 27.0
52.985781697 26.0
53.012042262 33.0
53.038302828 27.0
53.064563393 35.0
53.090823959 34.0
53.117084524 34.0
53.143345089 42.0
53.169605655 37.0
53.195866220 39.0
53.222126785 39.0
53.248387351 39.0
53.274647916 31.0
53.300908481 40.0
53.327169047 40.0
53.353429612 56.0
53.379690177 33.0
53.405950743 52.0
53.432211308 31.0
53.458471873 35.0
53.484732439 36.0
53.510993004 39.0
53.537253570 37.0
53.563514135 44.0
53.589774700 32.0
53.616035266 32.0
53.642295831 43.0
53.668556396 40.0
53.694816962 32.0
53.721077527 26.0
53.747338092 34.0
53.773598658 33.0
53.799859223 23.0
53.826119788 26.0
53.852380354 30.0
53.878640919 28.0
53.904901485 20.0
53.931162050 32.0
53.957422615 32.0
53.983683181 43.0
54.009943746 35.0
54.036204311 31.0
54.062464877 32.0
54.088725442 26.0
54.114986007 37.0
54.141246573 47.0
54.167507138 43.0
54.193767703 38.0
54.220028269 41.0
54.246288834 44.0
54.272549399 47.0
54.298809965 44.0
54.325070530 34.0
54.351331096 52.0
54.377591661 35.0
54.403852226 29.0
54.430112792 33.0
54.456373357 36.0
54.482633922 45.0
54.508894488 37.0
54.535155053 45.0
54.561415618 39.0
54.587676184 41.0
54.613936749 34.0
54.640197314 35.0
54.666457880 29.0
54.692718445 29.0
54.718979010 28.0
54.745239576 32.0
54.771500141 25.0
54.797760707 44.0
54.824021272 22.0
54.850281837 25.0
54.876542403 20.0
54.902802968 34.0
54.929063533 26.0
54.955324099 22.0
54.981584664 26.0
55.007845229 30.0
55.034105795 32.0
55.060366360 33.0
55.086626925 24.0
55.112887491 26.0
55.139148056 46.0
55.165408621 28.0
55.191669187 24.0
55.217929752 23.0
55.244190318 29.0
55.270450883 33.0
55.296711448 40.0
55.322972014 34.0
55.349232579 46.0
55.375493144 26.0
55.401753710 33.0
55.428014275 26.0
55.454274840 35.0
55.480535406 29.0
55.506795971 28.0
55.533056536 37.0
55.559317102 30.0
55.585577667 32.0
55.611838232 25.0
55.638098798 28.0
55.664359363 27.0
55.690619929 40.0
55.716880494 25.0
55.743141059 33.0
55.769401625 22.0
55.795662190 30.0
55.821922755 28.0
55.848183321 31.0
55.874443886 31.0
55.900704451 29.0
55.926965017 33.0
55.953225582 33.0
55.979486147 41.0
56.005746713 34.0
56.032007278 36.0
56.058267843 32.0
56.084528409 39.0
56.110788974 48.0
56.137049540 60.0
56.163310105 46.0
56.189570670 53.0
56.215831236 50.0
56.242091801 42.0
56.268352366 44.0
56.294612932 52.0
56.320873497 48.0
56.347134062 43.0
56.373394628 53.0
56.399655193 29.0
56.425915758 42.0
56.452176324 45.0
56.478436889 44.0
56.504697454 51.0
56.530958020 60.0
56.557218585 64.0
56.583479151 67.0
56.609739716 104.0
56.636000281 114.0
56.662260847 107.0
56.688521412 143.0
56.714781977 159.0
56.741042543 133.0
56.767303108 163.0
56.793563673 176.0
56.819824239 160.0
56.846084804 128.0
56.872345369 118.0
56.898605935 103.0
56.924866500 97.0
56.951127065 94.0
56.977387631 89.0
57.003648196 62.0
57.029908762 45.0
57.056169327 42.0
57.082429892 41.0
57.108690458 46.0
57.134951023 44.0
57.161211588 44.0
57.187472154 36.0
57.213732719 34.0
57.239993284 31.0
57.266253850 46.0
57.292514415 33.0
57.318774980 27.0
57.345035546 39.0
57.371296111 41.0
57.397556676 32.0
57.423817242 36.0
57.450077807 30.0
57.476338373 34.0
57.502598938 35.0
57.528859503 41.0
57.555120069 36.0
57.581380634 40.0
57.607641199 34.0
57.633901765 37.0
57.660162330 28.0
57.686422895 42.0
57.712683461 39.0
57.738944026 26.0
57.765204591 40.0
57.791465157 26.0
57.817725722 34.0
57.843986288 33.0
57.870246853 30.0
57.896507418 44.0
57.922767984 26.0
57.949028549 36.0
57.975289114 41.0
58.001549680 24.0
58.027810245 32.0
58.054070810 40.0
58.080331376 38.0
58.106591941 54.0
58.132852506 27.0
58.159113072 43.0
58.185373637 41.0
58.211634202 32.0
58.237894768 35.0
58.264155333 39.0
58.290415899 45.0
58.316676464 39.0
58.342937029 29.0
58.369197595 38.0
58.395458160 26.0
58.421718725 32.0
58.447979291 44.0
58.474239856 39.0
58.500500421 35.0
58.526760987 40.0
58.553021552 35.0
58.579282117 37.0
58.605542683 39.0
58.631803248 46.0
58.658063813 58.0
58.684324379 60.0
58.710584944 40.0
58.736845510 41.0
58.763106075 66.0
58.789366640 41.0
58.815627206 48.0
58.841887771 49.0
58.868148336 46.0
58.894408902 46.0
58.920669467 45.0
58.946930032 49.0
58.973190598 51.0
58.999451163 48.0
59.025711728 33.0
59.051972294 42.0
59.078232859 32.0
59.104493424 42.0
59.130753990 38.0
59.157014555 39.0
59.183275121 47.0
59.209535686 45.0
59.235796251 43.0
59.262056817 36.0
59.288317382 47.0
59.314577947 45.0
59.340838513 48.0
59.367099078 45.0
59.393359643 35.0
59.419620209 41.0
59.445880774 33.0
59.472141339 52.0
59.498401905 53.0
59.524662470 48.0
59.550923035 51.0
59.577183601 36.0
59.603444166 56.0
59.629704732 54.0
59.655965297 36.0
59.682225862 43.0
59.708486428 46.0
59.734746993 32.0
59.761007558 48.0
59.787268124 42.0
59.813528689 46.0
59.839789254 52.0
59.866049820 28.0
59.892310385 33.0
59.918570950 44.0
59.944831516 36.0
59.971092081 32.0
59.997352646 39.0
60.023613212 34.0
60.049873777 49.0
60.076134343 64.0
60.102394908 70.0
60.128655473 90.0
60.154916039 83.0
60.181176604 117.0
60.207437169 154.0
60.233697735 127.0
60.259958300 103.0
60.286218865 80.0
60.312479431 76.0
60.338739996 87.0
60.365000561 104.0
60.391261127 71.0
60.417521692 66.0
60.443782257 56.0
60.470042823 40.0
60.496303388 54.0
60.522563954 36.0
60.548824519 40.0
60.575085084 34.0
60.601345650 56.0
60.627606215 48.0
60.653866780 34.0
60.680127346 39.0
60.706387911 49.0
60.732648476 43.0
60.758909042 39.0
60.785169607 43.0
60.811430172 39.0
60.837690738 55.0
60.863951303 43.0
60.890211868 54.0
60.916472434 46.0
60.942732999 60.0
60.968993565 50.0
60.995254130 57.0
61.021514695 40.0
61.047775261 38.0
61.074035826 36.0
61.100296391 35.0
61.126556957 47.0
61.152817522 51.0
61.179078087 49.0
61.205338653 58.0
61.231599218 37.0
61.257859783 38.0
61.284120349 33.0
61.310380914 35.0
61.336641479 30.0
61.362902045 24.0
61.389162610 49.0
61.415423176 42.0
61.441683741 35.0
61.467944306 33.0
61.494204872 30.0
61.520465437 48.0
61.546726002 37.0
61.572986568 24.0
61.599247133 33.0
61.625507698 30.0
61.651768264 47.0
61.678028829 37.0
61.704289394 41.0
61.730549960 28.0
61.756810525 39.0
61.783071091 31.0
61.809331656 37.0
61.835592221 34.0
61.861852787 30.0
61.888113352 29.0
61.914373917 34.0
61.940634483 28.0
61.966895048 32.0
61.993155613 36.0
62.019416179 37.0
62.045676744 47.0
62.071937309 31.0
62.098197875 50.0
62.124458440 40.0
62.150719005 43.0
62.176979571 49.0
62.203240136 34.0
62.229500702 58.0
62.255761267 45.0
62.282021832 49.0
62.308282398 64.0
62.334542963 45.0
62.360803528 86.0
62.387064094 108.0
62.413324659 135.0
62.439585224 170.0
62.465845790 151.0
62.492106355 163.0
62.518366920 182.0
62.544627486 160.0
62.570888051 184.0
62.597148616 165.0
62.623409182 176.0
62.649669747 183.0
62.675930313 175.0
62.702190878 157.0
62.728451443 142.0
62.754712009 113.0
62.780972574 110.0
62.807233139 93.0
62.833493705 97.0
62.859754270 80.0
62.886014835 67.0
62.912275401 60.0
62.938535966 59.0
62.964796531 55.0
62.991057097 66.0
63.017317662 55.0
63.043578227 52.0
63.069838793 51.0
63.096099358 46.0
63.122359924 44.0
63.148620489 48.0
63.174881054 43.0
63.201141620 47.0
63.227402185 50.0
63.253662750 50.0
63.279923316 28.0
63.306183881 31.0
63.332444446 40.0
63.358705012 48.0
63.384965577 22.0
63.411226142 30.0
63.437486708 28.0
63.463747273 42.0
63.490007838 28.0
63.516268404 33.0
63.542528969 30.0
63.568789535 39.0
63.595050100 31.0
63.621310665 55.0
63.647571231 42.0
63.673831796 44.0
63.700092361 38.0
63.726352927 54.0
63.752613492 43.0
63.778874057 49.0
63.805134623 42.0
63.831395188 43.0
63.857655753 54.0
63.883916319 71.0
63.910176884 60.0
63.936437449 60.0
63.962698015 69.0
63.988958580 74.0
64.015219146 63.0
64.041479711 39.0
64.067740276 56.0
64.094000842 50.0
64.120261407 53.0
64.146521972 38.0
64.172782538 44.0
64.199043103 36.0
64.225303668 39.0
64.251564234 31.0
64.277824799 38.0
64.304085364 39.0
64.330345930 24.0
64.356606495 41.0
64.382867060 38.0
64.409127626 28.0
64.435388191 29.0
64.461648757 21.0
64.487909322 37.0
64.514169887 32.0
64.540430453 36.0
64.566691018 29.0
64.592951583 32.0
64.619212149 30.0
64.645472714 28.0
64.671733279 23.0
64.697993845 30.0
64.724254410 20.0
64.750514975 32.0
64.776775541 34.0
64.803036106 24.0
64.829296671 27.0
64.855557237 31.0
64.881817802 33.0
64.908078368 37.0
64.934338933 23.0
64.960599498 31.0
64.986860064 24.0
65.013120629 25.0
65.039381194 29.0
65.065641760 30.0
65.091902325 28.0
65.118162890 37.0
65.144423456 19.0
65.170684021 22.0
65.196944586 31.0
65.223205152 26.0
65.249465717 36.0
65.275726283 35.0
65.301986848 39.0
65.328247413 28.0
65.354507979 31.0
65.380768544 24.0
65.407029109 33.0
65.433289675 27.0
65.459550240 26.0
65.485810805 35.0
65.512071371 32.0
65.538331936 38.0
65.564592501 32.0
65.590853067 26.0
65.617113632 37.0
65.643374197 37.0
65.669634763 28.0
65.695895328 30.0
65.722155894 28.0
65.748416459 42.0
65.774677024 31.0
65.800937590 28.0
65.827198155 19.0
65.853458720 31.0
65.879719286 35.0
65.905979851 30.0
65.932240416 27.0
65.958500982 24.0
65.984761547 28.0
66.011022112 23.0
66.037282678 36.0
66.063543243 41.0
66.089803808 19.0
66.116064374 15.0
66.142324939 36.0
66.168585505 23.0
66.194846070 36.0
66.221106635 40.0
66.247367201 34.0
66.273627766 30.0
66.299888331 26.0
66.326148897 22.0
66.352409462 28.0
66.378670027 31.0
66.404930593 38.0
66.431191158 31.0
66.457451723 24.0
66.483712289 27.0
66.509972854 28.0
66.536233419 28.0
66.562493985 15.0
66.588754550 30.0
66.615015116 34.0
66.641275681 24.0
66.667536246 32.0
66.693796812 35.0
66.720057377 30.0
66.746317942 27.0
66.772578508 30.0
66.798839073 33.0
66.825099638 24.0
66.851360204 29.0
66.877620769 29.0
66.903881334 26.0
66.930141900 34.0
66.956402465 25.0
66.982663030 30.0
67.008923596 25.0
67.035184161 26.0
67.061444727 35.0
67.087705292 21.0
67.113965857 31.0
67.140226423 27.0
67.166486988 27.0
67.192747553 26.0
67.219008119 42.0
67.245268684 18.0
67.271529249 31.0
67.297789815 30.0
67.324050380 26.0
67.350310945 40.0
67.376571511 29.0
67.402832076 29.0
67.429092641 27.0
67.455353207 39.0
67.481613772 31.0
67.507874338 53.0
67.534134903 32.0
67.560395468 43.0
67.586656034 39.0
67.612916599 58.0
67.639177164 54.0
67.665437730 44.0
67.691698295 54.0
67.717958860 40.0
67.744219426 42.0
67.770479991 46.0
67.796740556 44.0
67.823001122 35.0
67.849261687 39.0
67.875522252 43.0
67.901782818 29.0
67.928043383 36.0
67.954303949 28.0
67.980564514 29.0
68.006825079 24.0
68.033085645 27.0
68.059346210 24.0
68.085606775 19.0
68.111867341 29.0
68.138127906 35.0
68.164388471 27.0
68.190649037 37.0
68.216909602 29.0
68.243170167 25.0
68.269430733 39.0
68.295691298 30.0
68.321951863 32.0
68.348212429 29.0
68.374472994 25.0
68.400733560 32.0
68.426994125 35.0
68.453254690 43.0
68.479515256 29.0
68.505775821 36.0
68.532036386 40.0
68.558296952 34.0
68.584557517 40.0
68.610818082 48.0
68.637078648 33.0
68.663339213 35.0
68.689599778 38.0
68.715860344 26.0
68.742120909 42.0
68.768381474 35.0
68.794642040 41.0
68.820902605 44.0
68.847163171 42.0
68.873423736 38.0
68.899684301 31.0
68.925944867 30.0
68.952205432 32.0
68.978465997 28.0
69.004726563 32.0
69.030987128 31.0
69.057247693 28.0
69.083508259 35.0
69.109768824 20.0
69.136029389 31.0
69.162289955 29.0
69.188550520 28.0
69.214811086 33.0
69.241071651 29.0
69.267332216 26.0
69.293592782 21.0
69.319853347 29.0
69.346113912 27.0
69.372374478 35.0
69.398635043 29.0
69.424895608 19.0
69.451156174 26.0
69.477416739 34.0
69.503677304 31.0
69.529937870 34.0
69.556198435 18.0
69.582459000 25.0
69.608719566 18.0
69.634980131 25.0
69.661240697 37.0
69.687501262 31.0
69.713761827 31.0
69.740022393 26.0
69.766282958 32.0
69.792543523 27.0
69.818804089 37.0
69.845064654 30.0
69.871325219 24.0
69.897585785 29.0
69.923846350 20.0
69.950106915 41.0
69.976367481 39.0
70.002628046 38.0
70.028888611 26.0
70.055149177 24.0
70.081409742 31.0
70.107670308 22.0
70.133930873 21.0
70.160191438 35.0
70.186452004 31.0
70.212712569 19.0
70.238973134 29.0
70.265233700 20.0
70.291494265 28.0
70.317754830 30.0
70.344015396 26.0
70.370275961 26.0
70.396536526 18.0
70.422797092 27.0
70.449057657 34.0
70.475318222 31.0
70.501578788 31.0
70.527839353 24.0
70.554099919 20.0
70.580360484 26.0
70.606621049 30.0
70.632881615 28.0
70.659142180 31.0
70.685402745 16.0
70.711663311 29.0
70.737923876 32.0
70.764184441 31.0
70.790445007 31.0
70.816705572 27.0
70.842966137 26.0
70.869226703 23.0
70.895487268 28.0
70.921747833 38.0
70.948008399 28.0
70.974268964 29.0
71.000529530 29.0
71.026790095 24.0
71.053050660 32.0
71.079311226 18.0
71.105571791 25.0
71.131832356 28.0
71.158092922 41.0
71.184353487 35.0
71.210614052 20.0
71.236874618 37.0
71.263135183 34.0
71.289395748 28.0
71.315656314 23.0
71.341916879 40.0
71.368177444 40.0
71.394438010 36.0
71.420698575 38.0
71.446959141 24.0
71.473219706 28.0
71.499480271 22.0
71.525740837 24.0
71.552001402 34.0
71.578261967 35.0
71.604522533 33.0
71.630783098 25.0
71.657043663 34.0
71.683304229 36.0
71.709564794 22.0
71.735825359 34.0
71.762085925 32.0
71.788346490 22.0
71.814607055 25.0
71.840867621 36.0
71.867128186 35.0
71.893388752 25.0
71.919649317 27.0
71.945909882 25.0
71.972170448 35.0
71.998431013 34.0
72.024691578 23.0
72.050952144 22.0
72.077212709 26.0
72.103473274 22.0
72.129733840 21.0
72.155994405 23.0
72.182254970 25.0
72.208515536 22.0
72.234776101 18.0
72.261036666 29.0
72.287297232 27.0
72.313557797 24.0
72.339818363 23.0
72.366078928 31.0
72.392339493 24.0
72.418600059 17.0
72.444860624 19.0
72.471121189 23.0
72.497381755 25.0
72.523642320 31.0
72.549902885 26.0
72.576163451 22.0
72.602424016 31.0
72.628684581 30.0
72.654945147 29.0
72.681205712 35.0
72.707466277 38.0
72.733726843 32.0
72.759987408 31.0
72.786247974 31.0
72.812508539 29.0
72.838769104 32.0
72.865029670 29.0
72.891290235 34.0
72.917550800 19.0
72.943811366 30.0
72.970071931 26.0
72.996332496 25.0
73.022593062 20.0
73.048853627 20.0
73.075114192 15.0
73.101374758 20.0
73.127635323 25.0
73.153895889 29.0
73.180156454 28.0
73.206417019 25.0
73.232677585 23.0
73.258938150 21.0
73.285198715 22.0
73.311459281 32.0
73.337719846 16.0
73.363980411 16.0
73.390240977 26.0
73.416501542 18.0
73.442762107 25.0
73.469022673 21.0
73.495283238 32.0
73.521543803 23.0
73.547804369 21.0
73.574064934 40.0
73.600325500 39.0
73.626586065 28.0
73.652846630 27.0
73.679107196 24.0
73.705367761 19.0
73.731628326 28.0
73.757888892 21.0
73.784149457 17.0
73.810410022 28.0
73.836670588 26.0
73.862931153 29.0
73.889191718 23.0
73.915452284 17.0
73.941712849 26.0
73.967973414 25.0
73.994233980 20.0
74.020494545 16.0
74.046755111 23.0
74.073015676 18.0
74.099276241 22.0
74.125536807 19.0
74.151797372 25.0
74.178057937 16.0
74.204318503 23.0
74.230579068 28.0
74.256839633 20.0
74.283100199 31.0
74.309360764 17.0
74.335621329 26.0
74.361881895 12.0
74.388142460 18.0
74.414403025 27.0
74.440663591 27.0
74.466924156 27.0
74.493184722 20.0
74.519445287 22.0
74.545705852 22.0
74.571966418 24.0
74.598226983 23.0
74.624487548 25.0
74.650748114 24.0
74.677008679 20.0
74.703269244 21.0
74.729529810 22.0
74.755790375 22.0
74.782050940 29.0
74.808311506 26.0
74.834572071 39.0
74.860832636 33.0
74.887093202 32.0
74.913353767 17.0
74.939614333 22.0
74.965874898 30.0
74.992135463 35.0
75.018396029 22.0
75.044656594 25.0
75.070917159 31.0
75.097177725 26.0
75.123438290 29.0
75.149698855 27.0
75.175959421 30.0
75.202219986 18.0
75.228480551 20.0
75.254741117 27.0
75.281001682 25.0
75.307262247 36.0
75.333522813 28.0
75.359783378 23.0
75.386043944 37.0
75.412304509 19.0
75.438565074 28.0
75.464825640 21.0
75.491086205 26.0
75.517346770 27.0
75.543607336 28.0
75.569867901 19.0
75.596128466 20.0
75.622389032 27.0
75.648649597 21.0
75.674910162 26.0
75.701170728 27.0
75.727431293 23.0
75.753691858 22.0
75.779952424 28.0
75.806212989 23.0
75.832473555 29.0
75.858734120 28.0
75.884994685 22.0
75.911255251 20.0
75.937515816 24.0
75.963776381 24.0
75.990036947 17.0
76.016297512 27.0
76.042558077 25.0
76.068818643 23.0
76.095079208 15.0
76.121339773 18.0
76.147600339 20.0
76.173860904 21.0
76.200121469 28.0
76.226382035 22.0
76.252642600 20.0
76.278903166 19.0
76.305163731 16.0
76.331424296 23.0
76.357684862 25.0
76.383945427 25.0
76.410205992 18.0
76.436466558 30.0
76.462727123 21.0
76.488987688 20.0
76.515248254 25.0
76.541508819 20.0
76.567769384 25.0
76.594029950 23.0
76.620290515 22.0
76.646551081 24.0
76.672811646 23.0
76.699072211 24.0
76.725332777 26.0
76.751593342 26.0
76.777853907 33.0
76.804114473 24.0
76.830375038 16.0
76.856635603 32.0
76.882896169 23.0
76.909156734 32.0
76.935417299 16.0
76.961677865 29.0
76.987938430 24.0
77.014198995 35.0
77.040459561 22.0
77.066720126 21.0
77.092980692 17.0
77.119241257 25.0
77.145501822 29.0
77.171762388 23.0
77.198022953 28.0
77.224283518 28.0
77.250544084 28.0
77.276804649 25.0
77.303065214 18.0
77.329325780 29.0
77.355586345 16.0
77.381846910 19.0
77.408107476 28.0
77.434368041 17.0
77.460628606 15.0
77.486889172 19.0
77.513149737 25.0
77.539410303 22.0
77.565670868 19.0
77.591931433 20.0
77.618191999 29.0
77.644452564 24.0
77.670713129 20.0
77.696973695 27.0
77.723234260 15.0
77.749494825 25.0
77.775755391 21.0
77.802015956 24.0
77.828276521 19.0
77.854537087 26.0
77.880797652 22.0
77.907058217 31.0
77.933318783 24.0
77.959579348 21.0
77.985839914 27.0
78.012100479 24.0
78.038361044 19.0
78.064621610 22.0
78.090882175 30.0
78.117142740 23.0
78.143403306 19.0
78.169663871 25.0
78.195924436 27.0
78.222185002 17.0
78.248445567 29.0
78.274706132 21.0
78.300966698 26.0
78.327227263 23.0
78.353487828 22.0
78.379748394 24.0
78.406008959 24.0
78.432269525 26.0
78.458530090 25.0
78.484790655 26.0
78.511051221 25.0
78.537311786 31.0
78.563572351 34.0
78.589832917 17.0
78.616093482 29.0
78.642354047 24.0
78.668614613 23.0
78.694875178 46.0
78.721135743 38.0
78.747396309 40.0
78.773656874 35.0
78.799917439 29.0
78.826178005 25.0
78.852438570 34.0
78.878699136 29.0
78.904959701 33.0
78.931220266 28.0
78.957480832 30.0
78.983741397 22.0
79.010001962 34.0
79.036262528 25.0
79.062523093 30.0
79.088783658 35.0
79.115044224 30.0
79.141304789 33.0
79.167565354 17.0
79.193825920 42.0
79.220086485 29.0
79.246347050 31.0
79.272607616 19.0
79.298868181 26.0
79.325128747 31.0
79.351389312 29.0
79.377649877 32.0
79.403910443 32.0
79.430171008 34.0
79.456431573 31.0
79.482692139 33.0
79.508952704 32.0
79.535213269 42.0
79.561473835 33.0
79.587734400 23.0
79.613994965 30.0
79.640255531 37.0
79.666516096 25.0
79.692776661 33.0
79.719037227 37.0
79.745297792 41.0
79.771558358 31.0
79.797818923 25.0
79.824079488 29.0
79.850340054 35.0
79.876600619 32.0
79.902861184 26.0
79.929121750 24.0
79.955382315 35.0
79.981642880 26.0
80.007903446 26.0
80.034164011 30.0
80.060424576 32.0
80.086685142 25.0
80.112945707 30.0
80.139206272 26.0
80.165466838 31.0
80.191727403 29.0
80.217987969 37.0
80.244248534 30.0
80.270509099 33.0
80.296769665 43.0
80.323030230 41.0
80.349290795 38.0
80.375551361 37.0
80.401811926 46.0
80.428072491 42.0
80.454333057 38.0
80.480593622 36.0
80.506854187 31.0
80.533114753 34.0
80.559375318 28.0
80.585635884 32.0
80.611896449 33.0
80.638157014 39.0
80.664417580 48.0
80.690678145 21.0
80.716938710 38.0
80.743199276 40.0
80.769459841 21.0
80.795720406 18.0
80.821980972 24.0
80.848241537 28.0
80.874502102 21.0
80.900762668 19.0
80.927023233 19.0
80.953283798 27.0
80.979544364 28.0
81.005804929 17.0
81.032065495 20.0
81.058326060 18.0
81.084586625 25.0
81.110847191 20.0
81.137107756 22.0
81.163368321 15.0
81.189628887 22.0
81.215889452 20.0
81.242150017 36.0
81.268410583 25.0
81.294671148 32.0
81.320931713 28.0
81.347192279 32.0
81.373452844 21.0
81.399713409 19.0
81.425973975 28.0
81.452234540 19.0
81.478495106 24.0
81.504755671 27.0
81.531016236 26.0
81.557276802 28.0
81.583537367 20.0
81.609797932 28.0
81.636058498 34.0
81.662319063 25.0
81.688579628 29.0
81.714840194 20.0
81.741100759 25.0
81.767361324 28.0
81.793621890 23.0
81.819882455 21.0
81.846143020 27.0
81.872403586 23.0
81.898664151 23.0
81.924924717 37.0
81.951185282 28.0
81.977445847 26.0
82.003706413 30.0
82.029966978 27.0
82.056227543 28.0
82.082488109 31.0
82.108748674 22.0
82.135009239 30.0
82.161269805 30.0
82.187530370 34.0
82.213790935 28.0
82.240051501 36.0
82.266312066 29.0
82.292572631 27.0
82.318833197 31.0
82.345093762 24.0
82.371354328 26.0
82.397614893 21.0
82.423875458 29.0
82.450136024 37.0
82.476396589 29.0
82.502657154 19.0
82.528917720 31.0
82.555178285 29.0
82.581438850 34.0
82.607699416 28.0
82.633959981 30.0
82.660220546 20.0
82.686481112 25.0
82.712741677 29.0
82.739002242 41.0
82.765262808 25.0
82.791523373 23.0
82.817783939 27.0
82.844044504 36.0
82.870305069 28.0
82.896565635 25.0
82.922826200 35.0
82.949086765 26.0
82.975347331 34.0
83.001607896 34.0
83.027868461 32.0
83.054129027 28.0
83.080389592 25.0
83.106650157 32.0
83.132910723 31.0
83.159171288 29.0
83.185431853 45.0
83.211692419 41.0
83.237952984 34.0
83.264213550 27.0
83.290474115 36.0
83.316734680 36.0
83.342995246 31.0
83.369255811 29.0
83.395516376 38.0
83.421776942 45.0
83.448037507 45.0
83.474298072 49.0
83.500558638 53.0
83.526819203 44.0
83.553079768 43.0
83.579340334 48.0
83.605600899 45.0
83.631861464 43.0
83.658122030 38.0
83.684382595 33.0
83.710643161 38.0
83.736903726 32.0
83.763164291 43.0
83.789424857 29.0
83.815685422 44.0
83.841945987 36.0
83.868206553 29.0
83.894467118 40.0
83.920727683 35.0
83.946988249 35.0
83.973248814 35.0
83.999509379 37.0
84.025769945 30.0
84.052030510 27.0
84.078291075 38.0
84.104551641 33.0
84.130812206 30.0
84.157072772 25.0
84.183333337 29.0
84.209593902 29.0
84.235854468 38.0
84.262115033 29.0
84.288375598 35.0
84.314636164 30.0
84.340896729 33.0
84.367157294 40.0
84.393417860 37.0
84.419678425 30.0
84.445938990 35.0
84.472199556 34.0
84.498460121 31.0
84.524720687 30.0
84.550981252 28.0
84.577241817 34.0
84.603502383 26.0
84.629762948 35.0
84.656023513 24.0
84.682284079 21.0
84.708544644 24.0
84.734805209 31.0
84.761065775 26.0
84.787326340 35.0
84.813586905 35.0
84.839847471 29.0
84.866108036 31.0
84.892368601 34.0
84.918629167 27.0
84.944889732 36.0
84.971150298 36.0
84.997410863 45.0
85.023671428 19.0
85.049931994 37.0
85.076192559 37.0
85.102453124 24.0
85.128713690 35.0
85.154974255 35.0
85.181234820 30.0
85.207495386 24.0
85.233755951 26.0
85.260016516 33.0
85.286277082 30.0
85.312537647 41.0
85.338798212 25.0
85.365058778 32.0
85.391319343 22.0
85.417579909 44.0
85.443840474 38.0
85.470101039 37.0
85.496361605 39.0
85.522622170 36.0
85.548882735 41.0
85.575143301 47.0
85.601403866 37.0
85.627664431 47.0
85.653924997 47.0
85.680185562 38.0
85.706446127 41.0
85.732706693 41.0
85.758967258 36.0
85.785227823 30.0
85.811488389 46.0
85.837748954 38.0
85.864009520 37.0
85.890270085 40.0
85.916530650 50.0
85.942791216 53.0
85.969051781 25.0
85.995312346 46.0
86.021572912 34.0
86.047833477 22.0
86.074094042 38.0
86.100354608 34.0
86.126615173 27.0
86.152875738 27.0
86.179136304 32.0
86.205396869 40.0
86.231657434 30.0
86.257918000 33.0
86.284178565 39.0
86.310439131 22.0
86.336699696 39.0
86.362960261 28.0
86.389220827 42.0
86.415481392 33.0
86.441741957 44.0
86.468002523 39.0
86.494263088 45.0
86.520523653 30.0
86.546784219 40.0
86.573044784 44.0
86.599305349 44.0
86.625565915 40.0
86.651826480 34.0
86.678087045 40.0
86.704347611 40.0
86.730608176 39.0
86.756868742 37.0
86.783129307 40.0
86.809389872 41.0
86.835650438 42.0
86.861911003 38.0
86.888171568 32.0
86.914432134 39.0
86.940692699 35.0
86.966953264 37.0
86.993213830 32.0
87.019474395 26.0
87.045734960 34.0
87.071995526 31.0
87.098256091 21.0
87.124516656 28.0
87.150777222 22.0
87.177037787 36.0
87.203298353 29.0
87.229558918 36.0
87.255819483 23.0
87.282080049 29.0
87.308340614 31.0
87.334601179 34.0
87.360861745 33.0
87.387122310 29.0
87.413382875 31.0
87.439643441 28.0
87.465904006 23.0
87.492164571 37.0
87.518425137 21.0
87.544685702 22.0
87.570946267 23.0
87.597206833 27.0
87.623467398 29.0
87.649727964 26.0
87.675988529 25.0
87.702249094 37.0
87.728509660 24.0
87.754770225 23.0
87.781030790 20.0
87.807291356 23.0
87.833551921 22.0
87.859812486 22.0
87.886073052 27.0
87.912333617 33.0
87.938594182 22.0
87.964854748 28.0
87.991115313 23.0
88.017375878 24.0
88.043636444 35.0
88.069897009 32.0
88.096157575 19.0
88.122418140 28.0
88.148678705 19.0
88.174939271 18.0
88.201199836 22.0
88.227460401 28.0
88.253720967 27.0
88.279981532 25.0
88.306242097 28.0
88.332502663 29.0
88.358763228 20.0
88.385023793 25.0
88.411284359 25.0
88.437544924 32.0
88.463805490 33.0
88.490066055 25.0
88.516326620 23.0
88.542587186 27.0
88.568847751 20.0
88.595108316 23.0
88.621368882 34.0
88.647629447 13.0
88.673890012 25.0
88.700150578 23.0
88.726411143 28.0
88.752671708 25.0
88.778932274 33.0
88.805192839 33.0
88.831453404 35.0
88.857713970 27.0
88.883974535 32.0
88.910235101 28.0
88.936495666 28.0
88.962756231 27.0
88.989016797 28.0
89.015277362 41.0
89.041537927 24.0
89.067798493 34.0
89.094059058 28.0
89.120319623 33.0
89.146580189 39.0
89.172840754 27.0
89.199101319 32.0
89.225361885 21.0
89.251622450 27.0
89.277883015 38.0
89.304143581 30.0
89.330404146 31.0
89.356664712 25.0
89.382925277 32.0
89.409185842 27.0
89.435446408 32.0
89.461706973 35.0
89.487967538 33.0
89.514228104 25.0
89.540488669 29.0
89.566749234 32.0
89.593009800 28.0
89.619270365 34.0
89.645530930 25.0
89.671791496 24.0
89.698052061 25.0
89.724312626 36.0
89.750573192 32.0
89.776833757 25.0
89.803094323 22.0
89.829354888 30.0
89.855615453 30.0
89.881876019 47.0
89.908136584 38.0
89.934397149 45.0
89.960657715 30.0
89.986918280 46.0
